Time(s),CH1V
-2.000000e-05,-2.601333e-01
-1.990000e-05,-1.295333e-01
-1.980000e-05,-1.133333e-03
-1.970000e-05,8.106667e-02
-1.960000e-05,1.778667e-01
-1.950000e-05,3.017333e-01
-1.940000e-05,4.053333e-01
-1.930000e-05,4.852667e-01
-1.920000e-05,5.404667e-01
-1.910000e-05,5.900000e-01
-1.900000e-05,6.350667e-01
-1.890000e-05,6.226667e-01
-1.880000e-05,5.393333e-01
-1.870000e-05,3.501333e-01
-1.860000e-05,7.093333e-02
-1.850000e-05,-2.241333e-01
-1.840000e-05,-4.910000e-01
-1.830000e-05,-6.880667e-01
-1.820000e-05,-7.657334e-01
-1.810000e-05,-7.623333e-01
-1.800000e-05,-6.508667e-01
-1.790000e-05,-5.428000e-01
-1.780000e-05,-4.335333e-01
-1.770000e-05,-3.187333e-01
-1.760000e-05,-1.892000e-01
-1.750000e-05,-6.646667e-02
-1.740000e-05,6.980000e-02
-1.730000e-05,1.463333e-01
-1.720000e-05,2.420667e-01
-1.710000e-05,3.558000e-01
-1.700000e-05,4.548667e-01
-1.690000e-05,5.258000e-01
-1.680000e-05,5.810000e-01
-1.670000e-05,6.238000e-01
-1.660000e-05,6.598000e-01
-1.650000e-05,6.339334e-01
-1.640000e-05,5.697333e-01
-1.630000e-05,3.783333e-01
-1.620000e-05,1.114667e-01
-1.610000e-05,-1.869333e-01
-1.600000e-05,-4.628667e-01
-1.590000e-05,-6.835334e-01
-1.580000e-05,-7.894000e-01
-1.570000e-05,-7.815334e-01
-1.560000e-05,-6.869333e-01
-1.550000e-05,-6.070000e-01
-1.540000e-05,-5.078667e-01
-1.530000e-05,-3.941333e-01
-1.520000e-05,-2.872000e-01
-1.510000e-05,-1.554000e-01
-1.500000e-05,-4.060000e-02
-1.490000e-05,6.186667e-02
-1.480000e-05,1.553333e-01
-1.470000e-05,2.803333e-01
-1.460000e-05,3.918000e-01
-1.450000e-05,4.616667e-01
-1.440000e-05,5.224667e-01
-1.430000e-05,5.855333e-01
-1.420000e-05,6.384000e-01
-1.410000e-05,6.305333e-01
-1.400000e-05,5.607333e-01
-1.390000e-05,4.098667e-01
-1.380000e-05,1.531333e-01
-1.370000e-05,-1.498000e-01
-1.360000e-05,-4.324000e-01
-1.350000e-05,-6.497334e-01
-1.340000e-05,-7.578667e-01
-1.330000e-05,-7.657334e-01
-1.320000e-05,-6.801333e-01
-1.310000e-05,-5.630667e-01
-1.300000e-05,-4.628667e-01
-1.290000e-05,-3.446000e-01
-1.280000e-05,-2.264000e-01
-1.270000e-05,-1.092667e-01
-1.260000e-05,3.040000e-02
-1.250000e-05,1.216000e-01
-1.240000e-05,2.094000e-01
-1.230000e-05,3.344000e-01
-1.220000e-05,4.346000e-01
-1.210000e-05,5.089334e-01
-1.200000e-05,5.641333e-01
-1.190000e-05,6.125333e-01
-1.180000e-05,6.576000e-01
-1.170000e-05,6.418000e-01
-1.160000e-05,5.978667e-01
-1.150000e-05,4.447334e-01
-1.140000e-05,1.734000e-01
-1.130000e-05,-1.148667e-01
-1.120000e-05,-4.009333e-01
-1.110000e-05,-6.306000e-01
-1.100000e-05,-7.623333e-01
-1.090000e-05,-7.882667e-01
-1.080000e-05,-7.139333e-01
-1.070000e-05,-6.294667e-01
-1.060000e-05,-5.394000e-01
-1.050000e-05,-4.200667e-01
-1.040000e-05,-3.074667e-01
-1.030000e-05,-1.869333e-01
-1.020000e-05,-5.406667e-02
-1.010000e-05,3.146667e-02
-1.000000e-05,1.294667e-01
-9.900000e-06,2.476667e-01
-9.800000e-06,3.546667e-01
-9.700000e-06,4.380000e-01
-9.600000e-06,5.112000e-01
-9.500000e-06,5.720000e-01
-9.400000e-06,6.272000e-01
-9.300000e-06,6.350667e-01
-9.200000e-06,6.091334e-01
-9.100000e-06,4.638667e-01
-9.000000e-06,2.105333e-01
-8.900000e-06,-7.773334e-02
-8.800000e-06,-3.614667e-01
-8.700000e-06,-5.946000e-01
-8.600000e-06,-7.364666e-01
-8.500000e-06,-7.792667e-01
-8.400000e-06,-7.026667e-01
-8.300000e-06,-5.923333e-01
-8.200000e-06,-4.921333e-01
-8.100000e-06,-3.705333e-01
-8.000000e-06,-2.522667e-01
-7.900000e-06,-1.272667e-01
-7.800000e-06,1.346667e-02
-7.700000e-06,1.080667e-01
-7.600000e-06,1.688667e-01
-7.500000e-06,2.049333e-01
-7.400000e-06,1.778667e-01
-7.300000e-06,1.227333e-01
-7.200000e-06,3.486667e-02
-7.100000e-06,-5.406667e-02
-7.000000e-06,-1.160000e-01
-6.900000e-06,-1.802000e-01
-6.800000e-06,-1.869333e-01
-6.700000e-06,-1.464000e-01
-6.600000e-06,-8.333334e-02
-6.500000e-06,6.733333e-03
-6.400000e-06,1.159333e-01
-6.300000e-06,2.116667e-01
-6.200000e-06,2.950000e-01
-6.100000e-06,3.288000e-01
-6.000000e-06,3.310000e-01
-5.900000e-06,3.096000e-01
-5.800000e-06,2.420667e-01
-5.700000e-06,1.677333e-01
-5.600000e-06,8.553334e-02
-5.500000e-06,2.813333e-02
-5.400000e-06,-1.466667e-02
-5.300000e-06,-3.380000e-02
-5.200000e-06,-2.033333e-02
-5.100000e-06,2.926667e-02
-5.000000e-06,7.653333e-02
-4.900000e-06,1.328667e-01
-4.800000e-06,1.688667e-01
-4.700000e-06,2.116667e-01
-4.600000e-06,2.296667e-01
-4.500000e-06,2.094000e-01
-4.400000e-06,1.677333e-01
-4.300000e-06,1.249333e-01
-4.200000e-06,7.880000e-02
-4.100000e-06,1.346667e-02
-4.000000e-06,-4.393333e-02
-3.900000e-06,-8.900000e-02
-3.800000e-06,-9.913334e-02
-3.700000e-06,-1.104000e-01
-3.600000e-06,-9.686667e-02
-3.500000e-06,-5.973333e-02
-3.400000e-06,-3.493333e-02
-3.300000e-06,-3.400000e-03
-3.200000e-06,1.460000e-02
-3.100000e-06,7.866667e-03
-3.000000e-06,6.733333e-03
-2.900000e-06,-3.946667e-02
-2.800000e-06,-8.786666e-02
-2.700000e-06,-1.284000e-01
-2.600000e-06,-1.746000e-01
-2.500000e-06,-2.083333e-01
-2.400000e-06,-2.264000e-01
-2.300000e-06,-2.354000e-01
-2.200000e-06,-2.117333e-01
-2.100000e-06,-2.016000e-01
-2.000000e-06,-1.588000e-01
-1.900000e-06,-1.238667e-01
-1.800000e-06,-9.686667e-02
-1.700000e-06,-6.086667e-02
-1.600000e-06,-6.086667e-02
-1.500000e-06,-6.420000e-02
-1.400000e-06,-6.986666e-02
-1.300000e-06,-1.070000e-01
-1.200000e-06,-1.228000e-01
-1.100000e-06,-1.486667e-01
-1.000000e-06,-1.486667e-01
-9.000000e-07,-1.486667e-01
-8.000000e-07,-1.362667e-01
-7.000000e-07,-1.205333e-01
-6.000000e-07,-6.420000e-02
-5.000000e-07,-4.166667e-02
-4.000000e-07,-6.800000e-03
-3.000000e-07,9.680000e-02
-2.000000e-07,1.958667e-01
-1.000000e-07,3.017333e-01
5.293956e-21,3.625333e-01
1.000000e-07,4.233333e-01
2.000000e-07,4.886667e-01
3.000000e-07,5.190667e-01
4.000000e-07,5.337334e-01
5.000000e-07,4.875333e-01
6.000000e-07,3.422667e-01
7.000000e-07,1.294667e-01
8.000000e-07,-1.002667e-01
9.000000e-07,-3.096667e-01
1.000000e-06,-4.673333e-01
1.100000e-06,-5.698000e-01
1.200000e-06,-5.698000e-01
1.300000e-06,-4.910000e-01
1.400000e-06,-4.121333e-01
1.500000e-06,-3.277333e-01
1.600000e-06,-2.376000e-01
1.700000e-06,-1.374000e-01
1.800000e-06,-3.720000e-02
1.900000e-06,4.500000e-02
2.000000e-06,1.103333e-01
2.100000e-06,1.914000e-01
2.200000e-06,2.690667e-01
2.300000e-06,3.389333e-01
2.400000e-06,3.929333e-01
2.500000e-06,4.346000e-01
2.600000e-06,4.808000e-01
2.700000e-06,4.932000e-01
2.800000e-06,4.819333e-01
2.900000e-06,4.166000e-01
3.000000e-06,2.702000e-01
3.100000e-06,4.953333e-02
3.200000e-06,-2.218667e-01
3.300000e-06,-4.504667e-01
3.400000e-06,-6.227334e-01
3.500000e-06,-7.342000e-01
3.600000e-06,-7.229334e-01
3.700000e-06,-6.407334e-01
3.800000e-06,-5.439333e-01
3.900000e-06,-4.572000e-01
4.000000e-06,-3.378667e-01
4.100000e-06,-2.342667e-01
4.200000e-06,-1.070000e-01
4.300000e-06,-2.140000e-02
4.400000e-06,6.980000e-02
4.500000e-06,1.553333e-01
4.600000e-06,2.589333e-01
4.700000e-06,3.682000e-01
4.800000e-06,4.414000e-01
4.900000e-06,4.999333e-01
5.000000e-06,5.663334e-01
5.100000e-06,6.024000e-01
5.200000e-06,5.968000e-01
5.300000e-06,5.382000e-01
5.400000e-06,3.670667e-01
5.500000e-06,1.046667e-01
5.600000e-06,-2.027333e-01
5.700000e-06,-4.853334e-01
5.800000e-06,-7.004000e-01
5.900000e-06,-8.254000e-01
6.000000e-06,-8.288000e-01
6.100000e-06,-7.128000e-01
6.200000e-06,-6.137334e-01
6.300000e-06,-4.864667e-01
6.400000e-06,-3.570000e-01
6.500000e-06,-2.274667e-01
6.600000e-06,-8.560000e-02
6.700000e-06,4.160000e-02
6.800000e-06,1.384667e-01
6.900000e-06,2.375333e-01
7.000000e-06,3.648000e-01
7.100000e-06,4.740000e-01
7.200000e-06,5.483333e-01
7.300000e-06,6.136667e-01
7.400000e-06,6.767333e-01
7.500000e-06,6.981333e-01
7.600000e-06,7.048666e-01
7.700000e-06,6.609333e-01
7.800000e-06,4.932000e-01
7.900000e-06,2.128000e-01
8.000000e-06,-1.272667e-01
8.100000e-06,-4.268000e-01
8.200000e-06,-6.497334e-01
8.300000e-06,-8.141333e-01
8.400000e-06,-8.265333e-01
8.500000e-06,-7.500000e-01
8.600000e-06,-6.508667e-01
8.700000e-06,-5.653334e-01
8.800000e-06,-4.470667e-01
8.900000e-06,-3.243333e-01
9.000000e-06,-1.880667e-01
9.100000e-06,-7.546667e-02
9.200000e-06,3.486667e-02
9.300000e-06,1.508667e-01
9.400000e-06,2.736000e-01
9.500000e-06,3.816667e-01
9.600000e-06,4.571334e-01
9.700000e-06,5.337334e-01
9.800000e-06,6.091334e-01
9.900000e-06,6.452000e-01
1.000000e-05,6.598000e-01
1.010000e-05,6.192667e-01
1.020000e-05,4.932000e-01
1.030000e-05,2.466000e-01
1.040000e-05,-5.406667e-02
1.050000e-05,-3.367333e-01
1.060000e-05,-5.720667e-01
1.070000e-05,-7.410000e-01
1.080000e-05,-7.792667e-01
1.090000e-05,-6.959333e-01
1.100000e-05,-5.968667e-01
1.110000e-05,-4.932667e-01
1.120000e-05,-3.885333e-01
1.130000e-05,-2.624000e-01
1.140000e-05,-1.250000e-01
1.150000e-05,-2.480000e-02
1.160000e-05,8.893333e-02
1.170000e-05,1.790000e-01
1.180000e-05,2.893333e-01
1.190000e-05,4.064667e-01
1.200000e-05,4.718000e-01
1.210000e-05,5.416000e-01
1.220000e-05,5.934000e-01
1.230000e-05,6.282667e-01
1.240000e-05,6.384000e-01
1.250000e-05,6.339334e-01
1.260000e-05,4.954000e-01
1.270000e-05,2.510667e-01
1.280000e-05,-4.060000e-02
1.290000e-05,-3.187333e-01
1.300000e-05,-5.574000e-01
1.310000e-05,-7.330667e-01
1.320000e-05,-7.736000e-01
1.330000e-05,-7.206666e-01
1.340000e-05,-6.351333e-01
1.350000e-05,-5.439333e-01
1.360000e-05,-4.403333e-01
1.370000e-05,-3.299333e-01
1.380000e-05,-2.038667e-01
1.390000e-05,-8.673333e-02
1.400000e-05,1.686667e-02
1.410000e-05,1.136667e-01
1.420000e-05,2.218000e-01
1.430000e-05,3.332667e-01
1.440000e-05,4.188667e-01
1.450000e-05,4.954000e-01
1.460000e-05,5.573334e-01
1.470000e-05,5.945333e-01
1.480000e-05,6.204000e-01
1.490000e-05,6.316667e-01
1.500000e-05,5.044667e-01
1.510000e-05,2.736000e-01
1.520000e-05,-6.800000e-03
1.530000e-05,-2.905333e-01
1.540000e-05,-5.326667e-01
1.550000e-05,-7.196000e-01
1.560000e-05,-7.736000e-01
1.570000e-05,-7.240667e-01
1.580000e-05,-6.114666e-01
1.590000e-05,-5.112666e-01
1.600000e-05,-4.042667e-01
1.610000e-05,-2.826667e-01
1.620000e-05,-1.419333e-01
1.630000e-05,-3.046667e-02
1.640000e-05,8.326667e-02
1.650000e-05,1.778667e-01
1.660000e-05,2.758667e-01
1.670000e-05,3.896000e-01
1.680000e-05,4.638667e-01
1.690000e-05,5.450000e-01
1.700000e-05,5.900000e-01
1.710000e-05,6.249334e-01
1.720000e-05,6.406667e-01
1.730000e-05,6.170667e-01
1.740000e-05,5.247334e-01
1.750000e-05,3.175333e-01
1.760000e-05,2.700000e-02
1.770000e-05,-2.646667e-01
1.780000e-05,-5.248000e-01
1.790000e-05,-7.150667e-01
1.800000e-05,-7.961333e-01
1.810000e-05,-7.556000e-01
1.820000e-05,-6.588000e-01
1.830000e-05,-5.799333e-01
1.840000e-05,-4.864667e-01
1.850000e-05,-3.626000e-01
1.860000e-05,-2.466667e-01
1.870000e-05,-1.272667e-01
1.880000e-05,-7.933334e-03
1.890000e-05,8.893333e-02
1.900000e-05,1.992667e-01
1.910000e-05,3.164000e-01
1.920000e-05,4.053333e-01
1.930000e-05,4.796667e-01
1.940000e-05,5.540000e-01
1.950000e-05,6.012667e-01
1.960000e-05,6.452000e-01
1.970000e-05,6.238000e-01
1.980000e-05,5.460667e-01
1.990000e-05,3.512667e-01
2.000000e-05,7.993334e-02
2.010000e-05,-2.274667e-01
2.020000e-05,-4.887334e-01
2.030000e-05,-6.914000e-01
2.040000e-05,-7.815334e-01
2.050000e-05,-7.454666e-01
2.060000e-05,-6.486000e-01
2.070000e-05,-5.461333e-01
2.080000e-05,-4.392000e-01
2.090000e-05,-3.187333e-01
2.100000e-05,-1.734667e-01
2.110000e-05,-6.420000e-02
2.120000e-05,4.726667e-02
2.130000e-05,1.463333e-01
2.140000e-05,2.556000e-01
2.150000e-05,3.569333e-01
2.160000e-05,4.594000e-01
2.170000e-05,5.236000e-01
2.180000e-05,5.855333e-01
2.190000e-05,6.294000e-01
2.200000e-05,6.553333e-01
2.210000e-05,6.373333e-01
2.220000e-05,5.697333e-01
2.230000e-05,3.839333e-01
2.240000e-05,1.069333e-01
2.250000e-05,-2.004667e-01
2.260000e-05,-4.583333e-01
2.270000e-05,-6.745334e-01
2.280000e-05,-7.905334e-01
2.290000e-05,-7.826000e-01
2.300000e-05,-6.768000e-01
2.310000e-05,-6.047333e-01
2.320000e-05,-5.101333e-01
2.330000e-05,-3.908000e-01
2.340000e-05,-2.601333e-01
2.350000e-05,-1.599333e-01
2.360000e-05,-5.293334e-02
2.370000e-05,6.753334e-02
2.380000e-05,1.677333e-01
2.390000e-05,2.826000e-01
2.400000e-05,3.816667e-01
2.410000e-05,4.638667e-01
2.420000e-05,5.359333e-01
2.430000e-05,5.956666e-01
2.440000e-05,6.260667e-01
2.450000e-05,6.474667e-01
2.460000e-05,5.754000e-01
2.470000e-05,4.177333e-01
2.480000e-05,1.520000e-01
2.490000e-05,-1.554000e-01
2.500000e-05,-4.110667e-01
2.510000e-05,-6.430000e-01
2.520000e-05,-7.657334e-01
2.530000e-05,-7.657334e-01
2.540000e-05,-6.621333e-01
2.550000e-05,-5.709333e-01
2.560000e-05,-4.594667e-01
2.570000e-05,-3.390000e-01
2.580000e-05,-2.083333e-01
2.590000e-05,-9.573334e-02
2.600000e-05,2.360000e-02
2.610000e-05,1.238000e-01
2.620000e-05,2.218000e-01
2.630000e-05,3.389333e-01
2.640000e-05,4.324000e-01
2.650000e-05,5.066667e-01
2.660000e-05,5.798666e-01
2.670000e-05,6.260667e-01
2.680000e-05,6.452000e-01
2.690000e-05,6.587334e-01
2.700000e-05,6.192667e-01
2.710000e-05,4.548667e-01
2.720000e-05,1.868667e-01
2.730000e-05,-1.148667e-01
2.740000e-05,-3.851333e-01
2.750000e-05,-6.227334e-01
2.760000e-05,-7.680000e-01
2.770000e-05,-7.781333e-01
2.780000e-05,-6.982000e-01
2.790000e-05,-6.080667e-01
2.800000e-05,-5.281333e-01
2.810000e-05,-4.065333e-01
2.820000e-05,-3.018000e-01
2.830000e-05,-1.734667e-01
2.840000e-05,-6.760000e-02
2.850000e-05,4.386667e-02
2.860000e-05,1.350667e-01
2.870000e-05,2.567333e-01
2.880000e-05,3.592000e-01
2.890000e-05,4.537333e-01
2.900000e-05,5.303333e-01
2.910000e-05,5.742667e-01
2.920000e-05,6.316667e-01
2.930000e-05,6.373333e-01
2.940000e-05,6.159334e-01
2.950000e-05,4.684000e-01
2.960000e-05,2.172667e-01
2.970000e-05,-8.113334e-02
2.980000e-05,-3.581333e-01
2.990000e-05,-6.092000e-01
3.000000e-05,-7.454666e-01
3.010000e-05,-7.747334e-01
3.020000e-05,-6.925333e-01
3.030000e-05,-5.889333e-01
3.040000e-05,-4.932667e-01
3.050000e-05,-3.660000e-01
3.060000e-05,-2.387333e-01
3.070000e-05,-1.194000e-01
3.080000e-05,3.333333e-03
3.090000e-05,1.193333e-01
3.100000e-05,2.004000e-01
3.110000e-05,3.130000e-01
3.120000e-05,4.233333e-01
3.130000e-05,4.965333e-01
3.140000e-05,5.674667e-01
3.150000e-05,6.102667e-01
3.160000e-05,6.418000e-01
3.170000e-05,6.677333e-01
3.180000e-05,6.384000e-01
3.190000e-05,5.033333e-01
3.200000e-05,2.578000e-01
3.210000e-05,-3.380000e-02
3.220000e-05,-3.198000e-01
3.230000e-05,-5.833333e-01
3.240000e-05,-7.511333e-01
3.250000e-05,-7.837334e-01
3.260000e-05,-7.240667e-01
3.270000e-05,-6.430000e-01
3.280000e-05,-5.574000e-01
3.290000e-05,-4.493333e-01
3.300000e-05,-3.209333e-01
3.310000e-05,-2.140000e-01
3.320000e-05,-8.673333e-02
3.330000e-05,3.486667e-02
3.340000e-05,1.182000e-01
3.350000e-05,2.296667e-01
3.360000e-05,3.288000e-01
3.370000e-05,4.200000e-01
3.380000e-05,5.123333e-01
3.390000e-05,5.641333e-01
3.400000e-05,6.024000e-01
3.410000e-05,6.373333e-01
3.420000e-05,6.508000e-01
3.430000e-05,5.156667e-01
3.440000e-05,2.837333e-01
3.450000e-05,-4.533333e-03
3.460000e-05,-2.826667e-01
3.470000e-05,-5.428000e-01
3.480000e-05,-7.196000e-01
3.490000e-05,-7.646000e-01
3.500000e-05,-7.173333e-01
3.510000e-05,-6.103333e-01
3.520000e-05,-5.248000e-01
3.530000e-05,-4.042667e-01
3.540000e-05,-2.702667e-01
3.550000e-05,-1.464000e-01
3.560000e-05,-3.720000e-02
3.570000e-05,7.653333e-02
3.580000e-05,1.846667e-01
3.590000e-05,2.848667e-01
3.600000e-05,3.794667e-01
3.610000e-05,4.684000e-01
3.620000e-05,5.551333e-01
3.630000e-05,5.945333e-01
3.640000e-05,6.452000e-01
3.650000e-05,6.486000e-01
3.660000e-05,6.238000e-01
3.670000e-05,5.348667e-01
3.680000e-05,3.254000e-01
3.690000e-05,3.040000e-02
3.700000e-05,-2.646667e-01
3.710000e-05,-5.191333e-01
3.720000e-05,-7.139333e-01
3.730000e-05,-7.905334e-01
3.740000e-05,-7.590000e-01
3.750000e-05,-6.632667e-01
3.760000e-05,-5.878000e-01
3.770000e-05,-4.763333e-01
3.780000e-05,-3.614667e-01
3.790000e-05,-2.477333e-01
3.800000e-05,-1.250000e-01
3.810000e-05,-7.933334e-03
3.820000e-05,9.906667e-02
3.830000e-05,1.948000e-01
3.840000e-05,3.006000e-01
3.850000e-05,4.008667e-01
3.860000e-05,4.852667e-01
3.870000e-05,5.416000e-01
3.880000e-05,5.934000e-01
3.890000e-05,6.305333e-01
3.900000e-05,6.272000e-01
3.910000e-05,5.450000e-01
3.920000e-05,3.479334e-01
3.930000e-05,7.313333e-02
3.940000e-05,-2.162000e-01
3.950000e-05,-4.898667e-01
3.960000e-05,-6.936667e-01
3.970000e-05,-7.758667e-01
3.980000e-05,-7.488667e-01
3.990000e-05,-6.407334e-01
4.000000e-05,-5.461333e-01
4.010000e-05,-4.302000e-01
4.020000e-05,-3.052000e-01
4.030000e-05,-1.858000e-01
4.040000e-05,-6.420000e-02
4.050000e-05,5.173333e-02
4.060000e-05,1.610000e-01
4.070000e-05,1.936667e-01
4.080000e-05,2.004000e-01
4.090000e-05,1.610000e-01
4.100000e-05,9.453333e-02
4.110000e-05,-7.933334e-03
4.120000e-05,-8.786666e-02
4.130000e-05,-1.520667e-01
4.140000e-05,-1.723333e-01
4.150000e-05,-1.666667e-01
4.160000e-05,-1.182667e-01
4.170000e-05,-3.720000e-02
4.180000e-05,6.866667e-02
4.190000e-05,1.666000e-01
4.200000e-05,2.600667e-01
4.210000e-05,3.186667e-01
4.220000e-05,3.468000e-01
4.230000e-05,3.220000e-01
4.240000e-05,2.780667e-01
4.250000e-05,2.060000e-01
4.260000e-05,1.430000e-01
4.270000e-05,5.626667e-02
4.280000e-05,-5.666667e-03
4.290000e-05,-3.380000e-02
4.300000e-05,-2.366667e-02
4.310000e-05,1.066667e-03
4.320000e-05,5.626667e-02
4.330000e-05,1.035333e-01
4.340000e-05,1.654667e-01
4.350000e-05,1.902667e-01
4.360000e-05,2.094000e-01
4.370000e-05,2.184000e-01
4.380000e-05,2.026667e-01
4.390000e-05,1.576000e-01
4.400000e-05,9.793334e-02
4.410000e-05,4.053333e-02
4.420000e-05,-1.240000e-02
4.430000e-05,-7.320000e-02
4.440000e-05,-1.002667e-01
4.450000e-05,-1.047333e-01
4.460000e-05,-9.686667e-02
4.470000e-05,-7.773334e-02
4.480000e-05,-4.506667e-02
4.490000e-05,-2.033333e-02
4.500000e-05,1.573333e-02
4.510000e-05,1.013333e-02
4.520000e-05,5.600000e-03
4.530000e-05,-2.033333e-02
4.540000e-05,-5.860000e-02
4.550000e-05,-9.240000e-02
4.560000e-05,-1.532000e-01
4.570000e-05,-1.892000e-01
4.580000e-05,-2.106000e-01
4.590000e-05,-2.274667e-01
4.600000e-05,-2.286000e-01
4.610000e-05,-2.050000e-01
4.620000e-05,-1.790667e-01
4.630000e-05,-1.396667e-01
4.640000e-05,-1.126667e-01
4.650000e-05,-8.333334e-02
4.660000e-05,-5.180000e-02
4.670000e-05,-6.760000e-02
4.680000e-05,-7.773334e-02
4.690000e-05,-8.673333e-02
4.700000e-05,-1.104000e-01
4.710000e-05,-1.295333e-01
4.720000e-05,-1.520667e-01
4.730000e-05,-1.610667e-01
4.740000e-05,-1.385333e-01
4.750000e-05,-1.261333e-01
4.760000e-05,-9.686667e-02
4.770000e-05,-6.193333e-02
4.780000e-05,-1.126667e-02
4.790000e-05,5.066667e-02
4.800000e-05,1.452000e-01
4.810000e-05,2.533333e-01
4.820000e-05,3.332667e-01
4.830000e-05,3.918000e-01
4.840000e-05,4.560000e-01
4.850000e-05,5.123333e-01
4.860000e-05,5.280667e-01
4.870000e-05,5.066667e-01
4.880000e-05,4.244667e-01
4.890000e-05,2.398000e-01
4.900000e-05,2.133333e-02
4.910000e-05,-1.970667e-01
4.920000e-05,-4.009333e-01
4.930000e-05,-5.382667e-01
4.940000e-05,-5.664000e-01
4.950000e-05,-5.236667e-01
4.960000e-05,-4.436667e-01
4.970000e-05,-3.705333e-01
4.980000e-05,-2.770667e-01
4.990000e-05,-1.847333e-01
5.000000e-05,-8.560000e-02
5.010000e-05,1.013333e-02
5.020000e-05,7.653333e-02
5.030000e-05,1.407333e-01
5.040000e-05,2.263333e-01
5.050000e-05,2.950000e-01
5.060000e-05,3.648000e-01
5.070000e-05,4.098667e-01
5.080000e-05,4.515333e-01
5.090000e-05,4.796667e-01
5.100000e-05,4.932000e-01
5.110000e-05,4.830667e-01
5.120000e-05,3.569333e-01
5.130000e-05,1.531333e-01
5.140000e-05,-8.786666e-02
5.150000e-05,-3.434667e-01
5.160000e-05,-5.450667e-01
5.170000e-05,-6.948000e-01
5.180000e-05,-7.342000e-01
5.190000e-05,-6.914000e-01
5.200000e-05,-5.912000e-01
5.210000e-05,-5.022666e-01
5.220000e-05,-3.930000e-01
5.230000e-05,-2.973333e-01
5.240000e-05,-1.756667e-01
5.250000e-05,-6.193333e-02
5.260000e-05,3.826667e-02
5.270000e-05,1.035333e-01
5.280000e-05,2.082667e-01
5.290000e-05,3.164000e-01
5.300000e-05,3.986000e-01
5.310000e-05,4.684000e-01
5.320000e-05,5.269333e-01
5.330000e-05,5.821334e-01
5.340000e-05,6.159334e-01
5.350000e-05,6.080000e-01
5.360000e-05,4.819333e-01
5.370000e-05,2.398000e-01
5.380000e-05,-5.293334e-02
5.390000e-05,-3.457333e-01
5.400000e-05,-5.968667e-01
5.410000e-05,-7.781333e-01
5.420000e-05,-8.333333e-01
5.430000e-05,-7.804000e-01
5.440000e-05,-6.576667e-01
5.450000e-05,-5.518000e-01
