Time(s),CH1V
-5.000000e-06,-9.530667e-01
-4.990000e-06,-8.874667e-01
-4.980000e-06,-8.264000e-01
-4.970000e-06,-7.766667e-01
-4.960000e-06,-7.337334e-01
-4.950000e-06,-6.693333e-01
-4.940000e-06,-6.049333e-01
-4.930000e-06,-5.608000e-01
-4.920000e-06,-4.784000e-01
-4.910000e-06,-4.512000e-01
-4.900000e-06,-4.037333e-01
-4.890000e-06,-3.517333e-01
-4.880000e-06,-2.974667e-01
-4.870000e-06,-2.500000e-01
-4.860000e-06,-2.070667e-01
-4.850000e-06,-1.484000e-01
-4.840000e-06,-1.144000e-01
-4.830000e-06,-7.146667e-02
-4.820000e-06,-4.440000e-02
-4.810000e-06,-2.533333e-03
-4.800000e-06,3.480000e-02
-4.790000e-06,5.853333e-02
-4.780000e-06,1.025333e-01
-4.770000e-06,1.353333e-01
-4.760000e-06,1.704000e-01
-4.750000e-06,1.749333e-01
-4.740000e-06,2.156000e-01
-4.730000e-06,2.302667e-01
-4.720000e-06,2.449333e-01
-4.710000e-06,2.698667e-01
-4.700000e-06,2.856000e-01
-4.690000e-06,2.992000e-01
-4.680000e-06,3.196000e-01
-4.670000e-06,3.241333e-01
-4.660000e-06,3.173333e-01
-4.650000e-06,3.264000e-01
-4.640000e-06,3.332000e-01
-4.630000e-06,3.274667e-01
-4.620000e-06,3.398667e-01
-4.610000e-06,3.625333e-01
-4.600000e-06,3.466667e-01
-4.590000e-06,3.388000e-01
-4.580000e-06,3.398667e-01
-4.570000e-06,3.342667e-01
-4.560000e-06,3.105333e-01
-4.550000e-06,3.478667e-01
-4.540000e-06,3.489333e-01
-4.530000e-06,3.772000e-01
-4.520000e-06,3.964000e-01
-4.510000e-06,4.314667e-01
-4.500000e-06,4.302667e-01
-4.490000e-06,4.496000e-01
-4.480000e-06,4.868000e-01
-4.470000e-06,5.185333e-01
-4.460000e-06,5.365334e-01
-4.450000e-06,5.693333e-01
-4.440000e-06,6.089333e-01
-4.430000e-06,6.112000e-01
-4.420000e-06,6.473333e-01
-4.410000e-06,6.756000e-01
-4.400000e-06,6.948000e-01
-4.390000e-06,7.230667e-01
-4.380000e-06,7.738667e-01
-4.370000e-06,8.078667e-01
-4.360000e-06,8.326667e-01
-4.350000e-06,8.632000e-01
-4.340000e-06,8.824000e-01
-4.330000e-06,8.982667e-01
-4.320000e-06,9.344000e-01
-4.310000e-06,9.672000e-01
-4.300000e-06,9.773334e-01
-4.290000e-06,1.012400e+00
-4.280000e-06,1.063200e+00
-4.270000e-06,1.065467e+00
-4.260000e-06,1.097200e+00
-4.250000e-06,1.118667e+00
-4.240000e-06,1.135600e+00
-4.230000e-06,1.167200e+00
-4.220000e-06,1.207867e+00
-4.210000e-06,1.250800e+00
-4.200000e-06,1.262133e+00
-4.190000e-06,1.297200e+00
-4.180000e-06,1.311867e+00
-4.170000e-06,1.336800e+00
-4.160000e-06,1.357067e+00
-4.150000e-06,1.367333e+00
-4.140000e-06,1.406800e+00
-4.130000e-06,1.431733e+00
-4.120000e-06,1.467867e+00
-4.110000e-06,1.481467e+00
-4.100000e-06,1.519867e+00
-4.090000e-06,1.520933e+00
-4.080000e-06,1.540133e+00
-4.070000e-06,1.572933e+00
-4.060000e-06,1.585467e+00
-4.050000e-06,1.619333e+00
-4.040000e-06,1.635200e+00
-4.030000e-06,1.663333e+00
-4.020000e-06,1.666800e+00
-4.010000e-06,1.665600e+00
-4.000000e-06,1.687067e+00
-3.990000e-06,1.696133e+00
-3.980000e-06,1.727867e+00
-3.970000e-06,1.735733e+00
-3.960000e-06,1.748133e+00
-3.950000e-06,1.765067e+00
-3.940000e-06,1.777600e+00
-3.930000e-06,1.776400e+00
-3.920000e-06,1.782000e+00
-3.910000e-06,1.792267e+00
-3.900000e-06,1.800133e+00
-3.890000e-06,1.816000e+00
-3.880000e-06,1.818267e+00
-3.870000e-06,1.827333e+00
-3.860000e-06,1.822800e+00
-3.850000e-06,1.834000e+00
-3.840000e-06,1.829467e+00
-3.830000e-06,1.846533e+00
-3.820000e-06,1.854400e+00
-3.810000e-06,1.853200e+00
-3.800000e-06,1.872533e+00
-3.790000e-06,1.851067e+00
-3.780000e-06,1.861200e+00
-3.770000e-06,1.846533e+00
-3.760000e-06,1.838533e+00
-3.750000e-06,1.825067e+00
-3.740000e-06,1.822800e+00
-3.730000e-06,1.812533e+00
-3.720000e-06,1.786533e+00
-3.710000e-06,1.791067e+00
-3.700000e-06,1.745867e+00
-3.690000e-06,1.724400e+00
-3.680000e-06,1.691600e+00
-3.670000e-06,1.665600e+00
-3.660000e-06,1.635200e+00
-3.650000e-06,1.603467e+00
-3.640000e-06,1.574133e+00
-3.630000e-06,1.514267e+00
-3.620000e-06,1.472400e+00
-3.610000e-06,1.414800e+00
-3.600000e-06,1.359333e+00
-3.590000e-06,1.325467e+00
-3.580000e-06,1.262133e+00
-3.570000e-06,1.213600e+00
-3.560000e-06,1.151467e+00
-3.550000e-06,1.094933e+00
-3.540000e-06,1.006800e+00
-3.530000e-06,9.457334e-01
-3.520000e-06,8.778667e-01
-3.510000e-06,8.134667e-01
-3.500000e-06,7.400000e-01
-3.490000e-06,6.609333e-01
-3.480000e-06,6.089333e-01
-3.470000e-06,5.185333e-01
-3.460000e-06,4.370667e-01
-3.450000e-06,3.466667e-01
-3.440000e-06,2.676000e-01
-3.430000e-06,1.817333e-01
-3.420000e-06,9.133334e-02
-3.410000e-06,2.346667e-02
-3.400000e-06,-7.146667e-02
-3.390000e-06,-1.562667e-01
-3.380000e-06,-2.568000e-01
-3.370000e-06,-3.382667e-01
-3.360000e-06,-4.398667e-01
-3.350000e-06,-5.224000e-01
-3.340000e-06,-6.004000e-01
-3.330000e-06,-6.794667e-01
-3.320000e-06,-7.450667e-01
-3.310000e-06,-8.649334e-01
-3.300000e-06,-9.372000e-01
-3.290000e-06,-1.044533e+00
-3.280000e-06,-1.133867e+00
-3.270000e-06,-1.193733e+00
-3.260000e-06,-1.276267e+00
-3.250000e-06,-1.355333e+00
-3.240000e-06,-1.434533e+00
-3.230000e-06,-1.510267e+00
-3.220000e-06,-1.599467e+00
-3.210000e-06,-1.664000e+00
-3.200000e-06,-1.730667e+00
-3.190000e-06,-1.805200e+00
-3.180000e-06,-1.866267e+00
-3.170000e-06,-1.930667e+00
-3.160000e-06,-1.968000e+00
-3.150000e-06,-2.053867e+00
-3.140000e-06,-2.103600e+00
-3.130000e-06,-2.155600e+00
-3.120000e-06,-2.209867e+00
-3.110000e-06,-2.251600e+00
-3.100000e-06,-2.302533e+00
-3.090000e-06,-2.324000e+00
-3.080000e-06,-2.374800e+00
-3.070000e-06,-2.402000e+00
-3.060000e-06,-2.440400e+00
-3.050000e-06,-2.461867e+00
-3.040000e-06,-2.494667e+00
-3.030000e-06,-2.512667e+00
-3.020000e-06,-2.528533e+00
-3.010000e-06,-2.548933e+00
-3.000000e-06,-2.548933e+00
-2.990000e-06,-2.566933e+00
-2.980000e-06,-2.569200e+00
-2.970000e-06,-2.574933e+00
-2.960000e-06,-2.573733e+00
-2.950000e-06,-2.576000e+00
-2.940000e-06,-2.566933e+00
-2.930000e-06,-2.535333e+00
-2.920000e-06,-2.537600e+00
-2.910000e-06,-2.511600e+00
-2.900000e-06,-2.508267e+00
-2.890000e-06,-2.474267e+00
-2.880000e-06,-2.444933e+00
-2.870000e-06,-2.416667e+00
-2.860000e-06,-2.395200e+00
-2.850000e-06,-2.355600e+00
-2.840000e-06,-2.309333e+00
-2.830000e-06,-2.286667e+00
-2.820000e-06,-2.230133e+00
-2.810000e-06,-2.204133e+00
-2.800000e-06,-2.166933e+00
-2.790000e-06,-2.104667e+00
-2.780000e-06,-2.058400e+00
-2.770000e-06,-1.990533e+00
-2.760000e-06,-1.954400e+00
-2.750000e-06,-1.885467e+00
-2.740000e-06,-1.857200e+00
-2.730000e-06,-1.783733e+00
-2.720000e-06,-1.723867e+00
-2.710000e-06,-1.671867e+00
-2.700000e-06,-1.617600e+00
-2.690000e-06,-1.558800e+00
-2.680000e-06,-1.493333e+00
-2.670000e-06,-1.440133e+00
-2.660000e-06,-1.382533e+00
-2.650000e-06,-1.327200e+00
-2.640000e-06,-1.262667e+00
-2.630000e-06,-1.200533e+00
-2.620000e-06,-1.154267e+00
-2.610000e-06,-1.070533e+00
-2.600000e-06,-1.020800e+00
-2.590000e-06,-9.586667e-01
-2.580000e-06,-9.056000e-01
-2.570000e-06,-8.445333e-01
-2.560000e-06,-7.948000e-01
-2.550000e-06,-7.529333e-01
-2.540000e-06,-6.705334e-01
-2.530000e-06,-6.286667e-01
-2.520000e-06,-5.574667e-01
-2.510000e-06,-5.122667e-01
-2.500000e-06,-4.557333e-01
-2.490000e-06,-4.206667e-01
-2.480000e-06,-3.721333e-01
-2.470000e-06,-3.042667e-01
-2.460000e-06,-2.658667e-01
-2.450000e-06,-2.048000e-01
-2.440000e-06,-1.573333e-01
-2.430000e-06,-1.144000e-01
-2.420000e-06,-9.640000e-02
-2.410000e-06,-4.213334e-02
-2.400000e-06,-1.493333e-02
-2.390000e-06,1.786667e-02
-2.380000e-06,5.733334e-02
-2.370000e-06,9.240000e-02
-2.360000e-06,1.409333e-01
-2.350000e-06,1.477333e-01
-2.340000e-06,1.862667e-01
-2.330000e-06,2.009333e-01
-2.320000e-06,2.269333e-01
-2.310000e-06,2.517333e-01
-2.300000e-06,2.540000e-01
-2.290000e-06,2.890667e-01
-2.280000e-06,3.037333e-01
-2.270000e-06,3.128000e-01
-2.260000e-06,3.105333e-01
-2.250000e-06,3.196000e-01
-2.240000e-06,3.309333e-01
-2.230000e-06,3.229333e-01
-2.220000e-06,3.444000e-01
-2.210000e-06,3.332000e-01
-2.200000e-06,3.580000e-01
-2.190000e-06,3.264000e-01
-2.180000e-06,3.444000e-01
-2.170000e-06,3.241333e-01
-2.160000e-06,3.196000e-01
-2.150000e-06,3.388000e-01
-2.140000e-06,3.376000e-01
-2.130000e-06,3.625333e-01
-2.120000e-06,3.557333e-01
-2.110000e-06,3.976000e-01
-2.100000e-06,4.122667e-01
-2.090000e-06,4.292000e-01
-2.080000e-06,4.461333e-01
-2.070000e-06,4.778667e-01
-2.060000e-06,5.049334e-01
-2.050000e-06,5.105333e-01
-2.040000e-06,5.794667e-01
-2.030000e-06,5.885333e-01
-2.020000e-06,6.066667e-01
-2.010000e-06,6.281334e-01
-2.000000e-06,6.632000e-01
-1.990000e-06,6.981333e-01
-1.980000e-06,7.264000e-01
-1.970000e-06,7.649333e-01
-1.960000e-06,7.965333e-01
-1.950000e-06,8.225334e-01
-1.940000e-06,8.394667e-01
-1.930000e-06,8.710667e-01
-1.920000e-06,9.050667e-01
-1.910000e-06,9.265333e-01
-1.900000e-06,9.660000e-01
-1.890000e-06,9.864000e-01
-1.880000e-06,1.015733e+00
-1.870000e-06,1.038400e+00
-1.860000e-06,1.074533e+00
-1.850000e-06,1.076800e+00
-1.840000e-06,1.097200e+00
-1.830000e-06,1.138933e+00
-1.820000e-06,1.155867e+00
-1.810000e-06,1.205600e+00
-1.800000e-06,1.237333e+00
-1.790000e-06,1.266667e+00
-1.780000e-06,1.271200e+00
-1.770000e-06,1.302800e+00
-1.760000e-06,1.309600e+00
-1.750000e-06,1.348000e+00
-1.740000e-06,1.388800e+00
-1.730000e-06,1.405733e+00
-1.720000e-06,1.461067e+00
-1.710000e-06,1.448667e+00
-1.700000e-06,1.481467e+00
-1.690000e-06,1.498400e+00
-1.680000e-06,1.519867e+00
-1.670000e-06,1.541333e+00
-1.660000e-06,1.553733e+00
-1.650000e-06,1.593333e+00
-1.640000e-06,1.614800e+00
-1.630000e-06,1.640800e+00
-1.620000e-06,1.641867e+00
-1.610000e-06,1.655467e+00
-1.600000e-06,1.653200e+00
-1.590000e-06,1.689333e+00
-1.580000e-06,1.698400e+00
-1.570000e-06,1.719867e+00
-1.560000e-06,1.748133e+00
-1.550000e-06,1.738000e+00
-1.540000e-06,1.770800e+00
-1.530000e-06,1.764000e+00
-1.520000e-06,1.766267e+00
-1.510000e-06,1.780933e+00
-1.500000e-06,1.797867e+00
-1.490000e-06,1.816000e+00
-1.480000e-06,1.816000e+00
-1.470000e-06,1.823867e+00
-1.460000e-06,1.804667e+00
-1.450000e-06,1.830667e+00
-1.440000e-06,1.829467e+00
-1.430000e-06,1.825067e+00
-1.420000e-06,1.852133e+00
-1.410000e-06,1.849867e+00
-1.400000e-06,1.854400e+00
-1.390000e-06,1.849867e+00
-1.380000e-06,1.852133e+00
-1.370000e-06,1.845333e+00
-1.360000e-06,1.840800e+00
-1.350000e-06,1.835200e+00
-1.340000e-06,1.831733e+00
-1.330000e-06,1.837467e+00
-1.320000e-06,1.813733e+00
-1.310000e-06,1.802400e+00
-1.300000e-06,1.777600e+00
-1.290000e-06,1.748133e+00
-1.280000e-06,1.725600e+00
-1.270000e-06,1.705200e+00
-1.260000e-06,1.673600e+00
-1.250000e-06,1.646400e+00
-1.240000e-06,1.626133e+00
-1.230000e-06,1.568400e+00
-1.220000e-06,1.528933e+00
-1.210000e-06,1.471200e+00
-1.200000e-06,1.429467e+00
-1.190000e-06,1.374000e+00
-1.180000e-06,1.327733e+00
-1.170000e-06,1.287067e+00
-1.160000e-06,1.232800e+00
-1.150000e-06,1.168400e+00
-1.140000e-06,1.085867e+00
-1.130000e-06,1.030533e+00
-1.120000e-06,9.682667e-01
-1.110000e-06,8.869333e-01
-1.100000e-06,8.213333e-01
-1.090000e-06,7.614667e-01
-1.080000e-06,6.948000e-01
-1.070000e-06,6.112000e-01
-1.060000e-06,5.388000e-01
-1.050000e-06,4.506667e-01
-1.040000e-06,3.534667e-01
-1.030000e-06,2.868000e-01
-1.020000e-06,1.997333e-01
-1.010000e-06,1.353333e-01
-1.000000e-06,3.933333e-02
-9.900000e-07,-3.760000e-02
-9.800000e-07,-1.393333e-01
-9.700000e-07,-2.196000e-01
-9.600000e-07,-3.178667e-01
-9.500000e-07,-3.969333e-01
-9.400000e-07,-4.852000e-01
-9.300000e-07,-5.688000e-01
-9.200000e-07,-6.501333e-01
-9.100000e-07,-7.574667e-01
-9.000000e-07,-8.354667e-01
-8.900000e-07,-9.338667e-01
-8.800000e-07,-1.027600e+00
-8.700000e-07,-1.097733e+00
-8.600000e-07,-1.192667e+00
-8.500000e-07,-1.258133e+00
-8.400000e-07,-1.339600e+00
-8.300000e-07,-1.407333e+00
-8.200000e-07,-1.502267e+00
-8.100000e-07,-1.572400e+00
-8.000000e-07,-1.651467e+00
-7.900000e-07,-1.723867e+00
-7.800000e-07,-1.780400e+00
-7.700000e-07,-1.851600e+00
-7.600000e-07,-1.902400e+00
-7.500000e-07,-1.983733e+00
-7.400000e-07,-2.029067e+00
-7.300000e-07,-2.101333e+00
-7.200000e-07,-2.144267e+00
-7.100000e-07,-2.192933e+00
-7.000000e-07,-2.239200e+00
-6.900000e-07,-2.286667e+00
-6.800000e-07,-2.327333e+00
-6.700000e-07,-2.360133e+00
-6.600000e-07,-2.397467e+00
-6.500000e-07,-2.424533e+00
-6.400000e-07,-2.463067e+00
-6.300000e-07,-2.487867e+00
-6.200000e-07,-2.510533e+00
-6.100000e-07,-2.527467e+00
-6.000000e-07,-2.517200e+00
-5.900000e-07,-2.559067e+00
-5.800000e-07,-2.546667e+00
-5.700000e-07,-2.578267e+00
-5.600000e-07,-2.580533e+00
-5.500000e-07,-2.586133e+00
-5.400000e-07,-2.573733e+00
-5.300000e-07,-2.558000e+00
-5.200000e-07,-2.548933e+00
-5.100000e-07,-2.529733e+00
-5.000000e-07,-2.537600e+00
-4.900000e-07,-2.518400e+00
-4.800000e-07,-2.487867e+00
-4.700000e-07,-2.473200e+00
-4.600000e-07,-2.433600e+00
-4.500000e-07,-2.404267e+00
-4.400000e-07,-2.352267e+00
-4.300000e-07,-2.327333e+00
-4.200000e-07,-2.286667e+00
-4.100000e-07,-2.257333e+00
-4.000000e-07,-2.214400e+00
-3.900000e-07,-2.154400e+00
-3.800000e-07,-2.110400e+00
-3.700000e-07,-2.060667e+00
-3.600000e-07,-2.017733e+00
-3.500000e-07,-1.956667e+00
-3.400000e-07,-1.922800e+00
-3.300000e-07,-1.862800e+00
-3.200000e-07,-1.814267e+00
-3.100000e-07,-1.747600e+00
-3.000000e-07,-1.696667e+00
-2.900000e-07,-1.639067e+00
-2.800000e-07,-1.563333e+00
-2.700000e-07,-1.513600e+00
-2.600000e-07,-1.461600e+00
-2.500000e-07,-1.405067e+00
-2.400000e-07,-1.348667e+00
-2.300000e-07,-1.276267e+00
-2.200000e-07,-1.215200e+00
-2.100000e-07,-1.155333e+00
-2.000000e-07,-1.100000e+00
-1.900000e-07,-1.016400e+00
-1.800000e-07,-9.914667e-01
-1.700000e-07,-9.417334e-01
-1.600000e-07,-8.626667e-01
-1.500000e-07,-8.197333e-01
-1.400000e-07,-7.518667e-01
-1.300000e-07,-6.862667e-01
-1.200000e-07,-6.230667e-01
-1.100000e-07,-5.913333e-01
-1.000000e-07,-5.236000e-01
-9.000000e-08,-4.761333e-01
-8.000000e-08,-4.444000e-01
-7.000000e-08,-3.721333e-01
-6.000000e-08,-3.178667e-01
-5.000000e-08,-2.670667e-01
-4.000000e-08,-2.297333e-01
-3.000000e-08,-1.765333e-01
-2.000000e-08,-1.461333e-01
-1.000000e-08,-9.746667e-02
-3.741834e-20,-5.560000e-02
1.000000e-08,-2.400000e-02
2.000000e-08,3.253333e-02
3.000000e-08,5.733334e-02
4.000000e-08,1.070667e-01
5.000000e-08,1.252000e-01
6.000000e-08,1.454667e-01
7.000000e-08,1.613333e-01
8.000000e-08,1.772000e-01
9.000000e-08,2.234667e-01
1.000000e-07,2.337333e-01
1.100000e-07,2.552000e-01
1.200000e-07,2.901333e-01
1.300000e-07,2.958667e-01
1.400000e-07,2.969333e-01
1.500000e-07,3.026667e-01
1.600000e-07,3.082667e-01
1.700000e-07,3.184000e-01
1.800000e-07,3.444000e-01
1.900000e-07,3.421333e-01
2.000000e-07,3.534667e-01
2.100000e-07,3.456000e-01
2.200000e-07,3.332000e-01
2.300000e-07,3.320000e-01
2.400000e-07,3.264000e-01
2.500000e-07,3.501333e-01
2.600000e-07,3.150667e-01
2.700000e-07,3.466667e-01
2.800000e-07,3.625333e-01
2.900000e-07,3.738667e-01
3.000000e-07,3.738667e-01
3.100000e-07,4.032000e-01
3.200000e-07,4.258667e-01
3.300000e-07,4.428000e-01
3.400000e-07,4.710667e-01
3.500000e-07,4.993334e-01
3.600000e-07,5.185333e-01
3.700000e-07,5.546667e-01
3.800000e-07,5.862667e-01
3.900000e-07,6.009333e-01
4.000000e-07,6.157333e-01
4.100000e-07,6.597334e-01
4.200000e-07,6.744000e-01
4.300000e-07,7.174667e-01
4.400000e-07,7.558666e-01
4.500000e-07,7.841333e-01
4.600000e-07,8.146667e-01
4.700000e-07,8.405333e-01
4.800000e-07,8.688000e-01
4.900000e-07,8.982667e-01
5.000000e-07,9.321333e-01
5.100000e-07,9.502667e-01
5.200000e-07,1.002267e+00
5.300000e-07,1.003333e+00
5.400000e-07,1.022533e+00
5.500000e-07,1.048533e+00
5.600000e-07,1.072267e+00
5.700000e-07,1.109600e+00
5.800000e-07,1.144667e+00
5.900000e-07,1.167200e+00
6.000000e-07,1.198933e+00
6.100000e-07,1.229333e+00
6.200000e-07,1.246400e+00
6.300000e-07,1.282533e+00
6.400000e-07,1.305067e+00
6.500000e-07,1.309600e+00
6.600000e-07,1.354800e+00
6.700000e-07,1.376267e+00
6.800000e-07,1.406800e+00
6.900000e-07,1.429467e+00
7.000000e-07,1.440800e+00
7.100000e-07,1.463333e+00
7.200000e-07,1.486000e+00
7.300000e-07,1.523200e+00
7.400000e-07,1.522133e+00
7.500000e-07,1.571867e+00
7.600000e-07,1.589867e+00
7.700000e-07,1.606933e+00
7.800000e-07,1.623867e+00
7.900000e-07,1.640800e+00
8.000000e-07,1.648667e+00
8.100000e-07,1.660000e+00
8.200000e-07,1.684800e+00
8.300000e-07,1.686000e+00
8.400000e-07,1.730133e+00
8.500000e-07,1.722133e+00
8.600000e-07,1.754933e+00
8.700000e-07,1.761733e+00
8.800000e-07,1.766267e+00
8.900000e-07,1.784267e+00
9.000000e-07,1.782000e+00
9.100000e-07,1.801333e+00
9.200000e-07,1.813733e+00
9.300000e-07,1.818267e+00
9.400000e-07,1.825067e+00
9.500000e-07,1.814800e+00
9.600000e-07,1.816000e+00
9.700000e-07,1.825067e+00
9.800000e-07,1.838533e+00
9.900000e-07,1.852133e+00
1.000000e-06,1.870267e+00
1.010000e-06,1.856667e+00
1.020000e-06,1.854400e+00
1.030000e-06,1.852133e+00
1.040000e-06,1.847600e+00
1.050000e-06,1.844267e+00
1.060000e-06,1.836267e+00
1.070000e-06,1.839733e+00
1.080000e-06,1.840800e+00
1.090000e-06,1.825067e+00
1.100000e-06,1.795600e+00
1.110000e-06,1.769600e+00
1.120000e-06,1.770800e+00
1.130000e-06,1.740267e+00
1.140000e-06,1.730133e+00
1.150000e-06,1.697333e+00
1.160000e-06,1.673600e+00
1.170000e-06,1.614800e+00
1.180000e-06,1.592133e+00
1.190000e-06,1.536800e+00
1.200000e-06,1.486000e+00
1.210000e-06,1.454267e+00
1.220000e-06,1.402267e+00
1.230000e-06,1.356000e+00
1.240000e-06,1.302800e+00
1.250000e-06,1.244133e+00
1.260000e-06,1.180800e+00
1.270000e-06,1.108400e+00
1.280000e-06,1.047467e+00
1.290000e-06,9.750667e-01
1.300000e-06,9.344000e-01
1.310000e-06,8.473334e-01
1.320000e-06,7.829334e-01
1.330000e-06,7.026667e-01
1.340000e-06,6.382667e-01
1.350000e-06,5.490667e-01
1.360000e-06,4.574667e-01
1.370000e-06,3.885333e-01
1.380000e-06,3.060000e-01
1.390000e-06,2.325333e-01
1.400000e-06,1.477333e-01
1.410000e-06,6.973334e-02
1.420000e-06,-3.533334e-02
1.430000e-06,-1.133333e-01
1.440000e-06,-2.070667e-01
1.450000e-06,-2.918667e-01
1.460000e-06,-3.653333e-01
1.470000e-06,-4.602667e-01
1.480000e-06,-5.304000e-01
1.490000e-06,-6.468000e-01
1.500000e-06,-7.248000e-01
1.510000e-06,-8.129333e-01
1.520000e-06,-9.124000e-01
1.530000e-06,-9.904000e-01
1.540000e-06,-1.088667e+00
1.550000e-06,-1.156533e+00
1.560000e-06,-1.228800e+00
1.570000e-06,-1.310133e+00
1.580000e-06,-1.402800e+00
1.590000e-06,-1.472933e+00
1.600000e-06,-1.549733e+00
1.610000e-06,-1.635733e+00
1.620000e-06,-1.694400e+00
1.630000e-06,-1.778133e+00
1.640000e-06,-1.823333e+00
1.650000e-06,-1.901333e+00
1.660000e-06,-1.954400e+00
1.670000e-06,-2.027867e+00
1.680000e-06,-2.083200e+00
1.690000e-06,-2.127333e+00
1.700000e-06,-2.178133e+00
1.710000e-06,-2.212133e+00
1.720000e-06,-2.277600e+00
1.730000e-06,-2.300267e+00
1.740000e-06,-2.361333e+00
1.750000e-06,-2.383867e+00
1.760000e-06,-2.420000e+00
1.770000e-06,-2.448267e+00
1.780000e-06,-2.483333e+00
1.790000e-06,-2.507067e+00
1.800000e-06,-2.506000e+00
1.810000e-06,-2.534267e+00
1.820000e-06,-2.542133e+00
1.830000e-06,-2.571467e+00
1.840000e-06,-2.585067e+00
1.850000e-06,-2.574933e+00
1.860000e-06,-2.578267e+00
1.870000e-06,-2.561333e+00
1.880000e-06,-2.569200e+00
1.890000e-06,-2.550000e+00
1.900000e-06,-2.548933e+00
1.910000e-06,-2.522933e+00
1.920000e-06,-2.512667e+00
1.930000e-06,-2.493467e+00
1.940000e-06,-2.465200e+00
1.950000e-06,-2.434800e+00
1.960000e-06,-2.381600e+00
1.970000e-06,-2.376000e+00
1.980000e-06,-2.331867e+00
1.990000e-06,-2.308133e+00
2.000000e-06,-2.270800e+00
2.010000e-06,-2.221200e+00
2.020000e-06,-2.175867e+00
2.030000e-06,-2.113733e+00
2.040000e-06,-2.074267e+00
2.050000e-06,-2.018800e+00
2.060000e-06,-1.968000e+00
2.070000e-06,-1.927333e+00
2.080000e-06,-1.879867e+00
2.090000e-06,-1.819867e+00
2.100000e-06,-1.753200e+00
2.110000e-06,-1.701200e+00
2.120000e-06,-1.644667e+00
2.130000e-06,-1.588267e+00
2.140000e-06,-1.520400e+00
2.150000e-06,-1.467333e+00
2.160000e-06,-1.423200e+00
2.170000e-06,-1.354267e+00
2.180000e-06,-1.292133e+00
2.190000e-06,-1.218667e+00
2.200000e-06,-1.165467e+00
2.210000e-06,-1.112400e+00
2.220000e-06,-1.052533e+00
2.230000e-06,-1.003867e+00
2.240000e-06,-9.530667e-01
2.250000e-06,-8.864000e-01
2.260000e-06,-8.174667e-01
2.270000e-06,-7.677333e-01
2.280000e-06,-6.862667e-01
2.290000e-06,-6.456000e-01
2.300000e-06,-5.890667e-01
2.310000e-06,-5.461333e-01
2.320000e-06,-4.896000e-01
2.330000e-06,-4.456000e-01
2.340000e-06,-3.946667e-01
2.350000e-06,-3.145333e-01
2.360000e-06,-2.794667e-01
