Time(s),CH1V
-5.000000e-05,-1.504000e-01
-4.990000e-05,1.000000e-02
-4.980000e-05,2.473333e-01
-4.970000e-05,5.389333e-01
-4.960000e-05,8.012000e-01
-4.950000e-05,9.594667e-01
-4.940000e-05,9.413334e-01
-4.930000e-05,7.537333e-01
-4.920000e-05,4.192000e-01
-4.910000e-05,-3.746667e-02
-4.900000e-05,-4.692000e-01
-4.890000e-05,-8.466667e-01
-4.880000e-05,-1.117867e+00
-4.870000e-05,-1.188000e+00
-4.860000e-05,-1.068133e+00
-4.850000e-05,-8.353333e-01
-4.840000e-05,-5.189334e-01
-4.830000e-05,-1.685333e-01
-4.820000e-05,1.185333e-01
-4.810000e-05,3.356000e-01
-4.800000e-05,3.988000e-01
-4.790000e-05,3.536000e-01
-4.780000e-05,2.134667e-01
-4.770000e-05,3.200000e-03
-4.760000e-05,-1.504000e-01
-4.750000e-05,-2.160000e-02
-4.740000e-05,2.180000e-01
-4.730000e-05,5.050667e-01
-4.720000e-05,7.785333e-01
-4.710000e-05,9.368000e-01
-4.700000e-05,9.661334e-01
-4.690000e-05,8.034667e-01
-4.680000e-05,4.644000e-01
-4.670000e-05,2.360000e-02
-4.660000e-05,-4.217333e-01
-4.650000e-05,-7.924000e-01
-4.640000e-05,-1.077200e+00
-4.630000e-05,-1.178933e+00
-4.620000e-05,-1.084000e+00
-4.610000e-05,-8.625333e-01
-4.600000e-05,-5.573334e-01
-4.590000e-05,-2.114667e-01
-4.580000e-05,9.373333e-02
-4.570000e-05,3.310667e-01
-4.560000e-05,4.010667e-01
-4.550000e-05,3.536000e-01
-4.540000e-05,2.405333e-01
-4.530000e-05,4.400000e-02
-4.520000e-05,-1.392000e-01
-4.510000e-05,-4.653334e-02
-4.500000e-05,1.909333e-01
-4.490000e-05,4.621333e-01
-4.480000e-05,7.514667e-01
-4.470000e-05,9.481333e-01
-4.460000e-05,9.842667e-01
-4.450000e-05,8.305333e-01
-4.440000e-05,5.232000e-01
-4.430000e-05,8.240000e-02
-4.420000e-05,-3.629333e-01
-4.410000e-05,-7.540000e-01
-4.400000e-05,-1.061467e+00
-4.390000e-05,-1.169867e+00
-4.380000e-05,-1.108933e+00
-4.370000e-05,-8.896000e-01
-4.360000e-05,-5.912000e-01
-4.350000e-05,-2.364000e-01
-4.340000e-05,6.200000e-02
-4.330000e-05,3.061333e-01
-4.320000e-05,4.033333e-01
-4.310000e-05,3.920000e-01
-4.300000e-05,2.722667e-01
-4.290000e-05,7.786667e-02
-4.280000e-05,-1.346667e-01
-4.270000e-05,-6.453333e-02
-4.260000e-05,1.592000e-01
-4.250000e-05,4.349333e-01
-4.240000e-05,7.040000e-01
-4.230000e-05,9.277334e-01
-4.220000e-05,9.797333e-01
-4.210000e-05,8.554667e-01
-4.200000e-05,5.593333e-01
-4.190000e-05,1.412000e-01
-4.180000e-05,-3.132000e-01
-4.170000e-05,-7.088000e-01
-4.160000e-05,-1.029733e+00
-4.150000e-05,-1.178933e+00
-4.140000e-05,-1.113333e+00
-4.130000e-05,-9.234667e-01
-4.120000e-05,-6.341333e-01
-4.110000e-05,-2.770667e-01
-4.100000e-05,2.360000e-02
-4.090000e-05,2.813333e-01
-4.080000e-05,3.920000e-01
-4.070000e-05,3.852000e-01
-4.060000e-05,2.993333e-01
-4.050000e-05,1.026667e-01
-4.040000e-05,-9.840000e-02
-4.030000e-05,-7.813334e-02
-4.020000e-05,1.344000e-01
-4.010000e-05,3.920000e-01
-4.000000e-05,6.790667e-01
-3.990000e-05,9.052000e-01
-3.980000e-05,9.910667e-01
-3.970000e-05,8.848000e-01
-3.960000e-05,6.113333e-01
-3.950000e-05,2.112000e-01
-3.940000e-05,-2.634667e-01
-3.930000e-05,-6.681333e-01
-3.920000e-05,-1.009467e+00
-3.910000e-05,-1.167600e+00
-3.900000e-05,-1.124667e+00
-3.890000e-05,-9.529334e-01
-3.880000e-05,-6.681333e-01
-3.870000e-05,-3.336000e-01
-3.860000e-05,-1.026667e-02
-3.850000e-05,2.677333e-01
-3.840000e-05,3.920000e-01
-3.830000e-05,4.056000e-01
-3.820000e-05,3.152000e-01
-3.810000e-05,1.298667e-01
-3.800000e-05,-1.052000e-01
-3.790000e-05,-9.400000e-02
-3.780000e-05,8.013333e-02
-3.770000e-05,3.581333e-01
-3.760000e-05,6.452000e-01
-3.750000e-05,9.029334e-01
-3.740000e-05,9.978667e-01
-3.730000e-05,9.029334e-01
-3.720000e-05,6.474667e-01
-3.710000e-05,2.632000e-01
-3.700000e-05,-2.001333e-01
-3.690000e-05,-6.025333e-01
-3.680000e-05,-9.620000e-01
-3.670000e-05,-1.156400e+00
-3.660000e-05,-1.140533e+00
-3.650000e-05,-9.981334e-01
-3.640000e-05,-7.245333e-01
-3.630000e-05,-3.900000e-01
-3.620000e-05,-3.973334e-02
-3.610000e-05,2.473333e-01
-3.600000e-05,3.672000e-01
-3.590000e-05,4.056000e-01
-3.580000e-05,3.265333e-01
-3.570000e-05,1.546667e-01
-3.560000e-05,-7.586667e-02
-3.550000e-05,-1.233333e-01
-3.540000e-05,6.200000e-02
-3.530000e-05,3.333333e-01
-3.520000e-05,6.181334e-01
-3.510000e-05,8.509333e-01
-3.500000e-05,9.752000e-01
-3.490000e-05,9.254667e-01
-3.480000e-05,6.881334e-01
-3.470000e-05,3.242667e-01
-3.460000e-05,-1.437333e-01
-3.450000e-05,-5.618667e-01
-3.440000e-05,-9.438667e-01
-3.430000e-05,-1.138267e+00
-3.420000e-05,-1.151867e+00
-3.410000e-05,-1.011733e+00
-3.400000e-05,-7.630666e-01
-3.390000e-05,-4.285333e-01
-3.380000e-05,-6.680000e-02
-3.370000e-05,2.066667e-01
-3.360000e-05,3.672000e-01
-3.350000e-05,4.146667e-01
-3.340000e-05,3.490667e-01
-3.330000e-05,1.886667e-01
-3.320000e-05,-2.840000e-02
-3.310000e-05,-1.210667e-01
-3.300000e-05,1.680000e-02
-3.290000e-05,2.993333e-01
-3.280000e-05,5.593333e-01
-3.270000e-05,8.260000e-01
-3.260000e-05,9.774667e-01
-3.250000e-05,9.458667e-01
-3.240000e-05,7.424000e-01
-3.230000e-05,3.672000e-01
-3.220000e-05,-8.493333e-02
-3.210000e-05,-5.144000e-01
-3.200000e-05,-8.805333e-01
-3.190000e-05,-1.122400e+00
-3.180000e-05,-1.163067e+00
-3.170000e-05,-1.036533e+00
-3.160000e-05,-7.878667e-01
-3.150000e-05,-4.578667e-01
-3.140000e-05,-1.278667e-01
-3.130000e-05,1.750667e-01
-3.120000e-05,3.445333e-01
-3.110000e-05,4.101333e-01
-3.100000e-05,3.604000e-01
-3.090000e-05,2.134667e-01
-3.080000e-05,-1.026667e-02
-3.070000e-05,-1.346667e-01
-3.060000e-05,-1.200000e-03
-3.050000e-05,2.654667e-01
-3.040000e-05,5.277333e-01
-3.030000e-05,8.170667e-01
-3.020000e-05,9.820000e-01
-3.010000e-05,9.549333e-01
-3.000000e-05,7.696000e-01
-2.990000e-05,4.146667e-01
-2.980000e-05,-2.840000e-02
-2.970000e-05,-4.624000e-01
-2.960000e-05,-8.580000e-01
-2.950000e-05,-1.111067e+00
-2.940000e-05,-1.163067e+00
-2.930000e-05,-1.054667e+00
-2.920000e-05,-8.285334e-01
-2.910000e-05,-4.917333e-01
-2.900000e-05,-1.685333e-01
-2.890000e-05,1.569333e-01
-2.880000e-05,3.356000e-01
-2.870000e-05,4.101333e-01
-2.860000e-05,3.649333e-01
-2.850000e-05,2.202667e-01
-2.840000e-05,2.133333e-02
-2.830000e-05,-1.437333e-01
-2.820000e-05,-3.293333e-02
-2.810000e-05,2.384000e-01
-2.800000e-05,4.802667e-01
-2.790000e-05,7.785333e-01
-2.780000e-05,9.481333e-01
-2.770000e-05,9.617333e-01
-2.760000e-05,8.102667e-01
-2.750000e-05,4.644000e-01
-2.740000e-05,3.266667e-02
-2.730000e-05,-4.194667e-01
-2.720000e-05,-8.082667e-01
-2.710000e-05,-1.084000e+00
-2.700000e-05,-1.160800e+00
-2.690000e-05,-1.079467e+00
-2.680000e-05,-8.648000e-01
-2.670000e-05,-5.505334e-01
-2.660000e-05,-2.092000e-01
-2.650000e-05,1.208000e-01
-2.640000e-05,3.038667e-01
-2.630000e-05,4.033333e-01
-2.620000e-05,3.965333e-01
-2.610000e-05,2.541333e-01
-2.600000e-05,4.173333e-02
-2.590000e-05,-1.414667e-01
-2.580000e-05,-4.200000e-02
-2.570000e-05,2.021333e-01
-2.560000e-05,4.462667e-01
-2.550000e-05,7.492000e-01
-2.540000e-05,9.617333e-01
-2.530000e-05,9.888000e-01
-2.520000e-05,8.305333e-01
-2.510000e-05,5.164000e-01
-2.500000e-05,8.013333e-02
-2.490000e-05,-3.674667e-01
-2.480000e-05,-7.833334e-01
-2.470000e-05,-1.059200e+00
-2.460000e-05,-1.165333e+00
-2.450000e-05,-1.099867e+00
-2.440000e-05,-8.873333e-01
-2.430000e-05,-5.889333e-01
-2.420000e-05,-2.453333e-01
-2.410000e-05,7.786667e-02
-2.400000e-05,2.925333e-01
-2.390000e-05,3.965333e-01
-2.380000e-05,3.965333e-01
-2.370000e-05,2.813333e-01
-2.360000e-05,7.560000e-02
-2.350000e-05,-1.392000e-01
-2.340000e-05,-6.453333e-02
-2.330000e-05,1.750667e-01
-2.320000e-05,4.101333e-01
-2.310000e-05,7.198667e-01
-2.300000e-05,9.458667e-01
-2.290000e-05,9.933333e-01
-2.280000e-05,8.577334e-01
-2.270000e-05,5.570667e-01
-2.260000e-05,1.366667e-01
-2.250000e-05,-2.996000e-01
-2.240000e-05,-7.358667e-01
-2.230000e-05,-1.034267e+00
-2.220000e-05,-1.151867e+00
-2.210000e-05,-1.102133e+00
-2.200000e-05,-9.257333e-01
-2.190000e-05,-6.318667e-01
-2.180000e-05,-2.973333e-01
-2.170000e-05,3.946667e-02
-2.160000e-05,2.677333e-01
-2.150000e-05,3.897333e-01
-2.140000e-05,4.078667e-01
-2.130000e-05,2.881333e-01
-2.120000e-05,8.920000e-02
-2.110000e-05,-1.097333e-01
-2.100000e-05,-8.266667e-02
-2.090000e-05,1.478667e-01
-2.080000e-05,3.717333e-01
-2.070000e-05,6.790667e-01
-2.060000e-05,9.186667e-01
-2.050000e-05,9.797333e-01
-2.040000e-05,8.825334e-01
-2.030000e-05,6.204000e-01
-2.020000e-05,1.998667e-01
-2.010000e-05,-2.476000e-01
-2.000000e-05,-6.906667e-01
-1.990000e-05,-1.007200e+00
-1.980000e-05,-1.160800e+00
-1.970000e-05,-1.129200e+00
-1.960000e-05,-9.642667e-01
-1.950000e-05,-6.749333e-01
-1.940000e-05,-3.336000e-01
-1.930000e-05,1.680000e-02
-1.920000e-05,2.428000e-01
-1.910000e-05,3.920000e-01
-1.900000e-05,4.146667e-01
-1.890000e-05,3.197334e-01
-1.880000e-05,1.230667e-01
-1.870000e-05,-8.946667e-02
-1.860000e-05,-1.052000e-01
-1.850000e-05,9.586667e-02
-1.840000e-05,3.400000e-01
-1.830000e-05,6.270667e-01
-1.820000e-05,9.120000e-01
-1.810000e-05,1.002400e+00
-1.800000e-05,8.938667e-01
-1.790000e-05,6.406667e-01
-1.780000e-05,2.586667e-01
-1.770000e-05,-1.978667e-01
-1.760000e-05,-6.386667e-01
-1.750000e-05,-9.686667e-01
-1.740000e-05,-1.142800e+00
-1.730000e-05,-1.154133e+00
-1.720000e-05,-9.845334e-01
-1.710000e-05,-7.088000e-01
-1.700000e-05,-3.765333e-01
-1.690000e-05,-3.066667e-02
-1.680000e-05,2.248000e-01
-1.670000e-05,3.672000e-01
-1.660000e-05,4.169333e-01
-1.650000e-05,3.288000e-01
-1.640000e-05,1.478667e-01
-1.630000e-05,-6.680000e-02
-1.620000e-05,-1.233333e-01
-1.610000e-05,8.466667e-02
-1.600000e-05,3.106667e-01
-1.590000e-05,6.090667e-01
-1.580000e-05,8.689333e-01
-1.570000e-05,9.888000e-01
-1.560000e-05,9.209334e-01
-1.550000e-05,6.994666e-01
-1.540000e-05,2.993333e-01
-1.530000e-05,-1.346667e-01
-1.520000e-05,-5.934667e-01
-1.510000e-05,-9.325333e-01
-1.500000e-05,-1.138267e+00
-1.490000e-05,-1.158533e+00
-1.480000e-05,-1.016133e+00
-1.470000e-05,-7.630666e-01
-1.460000e-05,-4.240000e-01
-1.450000e-05,-7.360000e-02
-1.440000e-05,1.796000e-01
-1.430000e-05,3.513333e-01
-1.420000e-05,4.124000e-01
-1.410000e-05,3.445333e-01
-1.400000e-05,1.750667e-01
-1.390000e-05,-5.320000e-02
-1.380000e-05,-1.346667e-01
-1.370000e-05,3.266667e-02
-1.360000e-05,2.745333e-01
-1.350000e-05,5.412000e-01
-1.340000e-05,8.373333e-01
-1.330000e-05,9.933333e-01
-1.320000e-05,9.368000e-01
-1.310000e-05,7.310667e-01
-1.300000e-05,3.513333e-01
-1.290000e-05,-6.906667e-02
-1.280000e-05,-5.437334e-01
-1.270000e-05,-9.009333e-01
-1.260000e-05,-1.115600e+00
-1.250000e-05,-1.158533e+00
-1.240000e-05,-1.041067e+00
-1.230000e-05,-7.878667e-01
-1.220000e-05,-4.624000e-01
-1.210000e-05,-1.052000e-01
-1.200000e-05,1.569333e-01
-1.190000e-05,3.356000e-01
-1.180000e-05,4.282667e-01
-1.170000e-05,3.558667e-01
-1.160000e-05,2.021333e-01
-1.150000e-05,-1.253333e-02
-1.140000e-05,-1.481333e-01
-1.130000e-05,7.733333e-03
-1.120000e-05,2.361333e-01
-1.110000e-05,5.096000e-01
-1.100000e-05,8.192000e-01
-1.090000e-05,9.774667e-01
-1.080000e-05,9.594667e-01
-1.070000e-05,7.650667e-01
-1.060000e-05,4.078667e-01
-1.050000e-05,-1.253333e-02
-1.040000e-05,-4.849333e-01
-1.030000e-05,-8.714667e-01
-1.020000e-05,-1.097600e+00
-1.010000e-05,-1.174400e+00
-1.000000e-05,-1.059200e+00
-9.900000e-06,-8.262666e-01
-9.800000e-06,-5.030667e-01
-9.700000e-06,-1.481333e-01
-9.600000e-06,1.253333e-01
-9.500000e-06,3.197334e-01
-9.400000e-06,4.192000e-01
-9.300000e-06,3.694667e-01
-9.200000e-06,2.180000e-01
-9.100000e-06,1.000000e-02
-9.000000e-06,-1.572000e-01
-8.900000e-06,-5.733334e-03
-8.800000e-06,2.202667e-01
-8.700000e-06,4.802667e-01
-8.600000e-06,8.012000e-01
-8.500000e-06,9.504000e-01
-8.400000e-06,9.617333e-01
-8.300000e-06,7.898667e-01
-8.200000e-06,4.576000e-01
-8.100000e-06,3.266667e-02
-8.000000e-06,-4.285333e-01
-7.900000e-06,-8.285334e-01
-7.800000e-06,-1.074933e+00
-7.700000e-06,-1.165333e+00
-7.600000e-06,-1.097600e+00
-7.500000e-06,-8.648000e-01
-7.400000e-06,-5.573334e-01
-7.300000e-06,-1.978667e-01
-7.200000e-06,1.026667e-01
-7.100000e-06,2.970667e-01
-7.000000e-06,4.056000e-01
-6.900000e-06,3.830667e-01
-6.800000e-06,2.450667e-01
-6.700000e-06,3.040000e-02
-6.600000e-06,-1.504000e-01
-6.500000e-06,-3.746667e-02
-6.400000e-06,1.682667e-01
-6.300000e-06,4.440000e-01
-6.200000e-06,7.537333e-01
-6.100000e-06,9.661334e-01
-6.000000e-06,9.933333e-01
-5.900000e-06,8.214667e-01
-5.800000e-06,5.096000e-01
-5.700000e-06,1.004000e-01
-5.600000e-06,-3.900000e-01
-5.500000e-06,-7.742667e-01
-5.400000e-06,-1.050133e+00
-5.300000e-06,-1.169867e+00
-5.200000e-06,-1.102133e+00
-5.100000e-06,-8.986667e-01
-5.000000e-06,-6.002667e-01
-4.900000e-06,-2.386667e-01
-4.800000e-06,5.746667e-02
-4.700000e-06,2.858667e-01
-4.600000e-06,4.033333e-01
-4.500000e-06,3.965333e-01
-4.400000e-06,2.632000e-01
-4.300000e-06,6.200000e-02
-4.200000e-06,-1.437333e-01
-4.100000e-06,-6.453333e-02
-4.000000e-06,1.456000e-01
-3.900000e-06,4.033333e-01
-3.800000e-06,7.062667e-01
-3.700000e-06,9.526667e-01
-3.600000e-06,9.820000e-01
-3.500000e-06,8.486667e-01
-3.400000e-06,5.366667e-01
-3.300000e-06,1.524000e-01
-3.200000e-06,-3.313333e-01
-3.100000e-06,-7.245333e-01
-3.000000e-06,-1.022933e+00
-2.900000e-06,-1.160800e+00
-2.800000e-06,-1.111067e+00
-2.700000e-06,-9.234667e-01
-2.600000e-06,-6.364000e-01
-2.500000e-06,-2.838667e-01
-2.400000e-06,2.360000e-02
-2.300000e-06,2.473333e-01
-2.200000e-06,4.101333e-01
-2.100000e-06,4.146667e-01
-2.000000e-06,2.858667e-01
-1.900000e-06,1.004000e-01
-1.800000e-06,-1.120000e-01
-1.700000e-06,-5.320000e-02
-1.600000e-06,1.230667e-01
-1.500000e-06,3.694667e-01
-1.400000e-06,6.790667e-01
-1.300000e-06,9.142667e-01
-1.200000e-06,9.842667e-01
-1.100000e-06,8.734667e-01
-1.000000e-06,5.977333e-01
-9.000000e-07,2.066667e-01
-8.000000e-07,-2.725333e-01
-7.000000e-07,-6.906667e-01
-6.000000e-07,-9.868000e-01
-5.000000e-07,-1.156400e+00
-4.000000e-07,-1.136000e+00
-3.000000e-07,-9.620000e-01
-2.000000e-07,-6.793333e-01
-1.000000e-07,-3.132000e-01
3.779885e-19,-1.253333e-02
1.000000e-07,2.316000e-01
2.000000e-07,3.942667e-01
3.000000e-07,4.078667e-01
4.000000e-07,3.016000e-01
5.000000e-07,1.140000e-01
6.000000e-07,-1.097333e-01
7.000000e-07,-1.006667e-01
8.000000e-07,7.560000e-02
9.000000e-07,3.422667e-01
1.000000e-06,6.542667e-01
1.100000e-06,9.186667e-01
1.200000e-06,9.910667e-01
1.300000e-06,9.006667e-01
1.400000e-06,6.316000e-01
1.500000e-06,2.768000e-01
1.600000e-06,-2.069333e-01
1.700000e-06,-6.477333e-01
1.800000e-06,-9.686667e-01
1.900000e-06,-1.149600e+00
2.000000e-06,-1.142800e+00
2.100000e-06,-9.890667e-01
2.200000e-06,-7.201334e-01
2.300000e-06,-3.629333e-01
2.400000e-06,-4.653334e-02
2.500000e-06,2.089333e-01
2.600000e-06,3.897333e-01
2.700000e-06,4.169333e-01
2.800000e-06,3.310667e-01
2.900000e-06,1.546667e-01
3.000000e-06,-8.266667e-02
3.100000e-06,-1.052000e-01
3.200000e-06,5.746667e-02
3.300000e-06,3.106667e-01
3.400000e-06,6.158667e-01
3.500000e-06,8.712000e-01
3.600000e-06,9.774667e-01
3.700000e-06,9.322667e-01
3.800000e-06,6.790667e-01
3.900000e-06,3.152000e-01
4.000000e-06,-1.594667e-01
4.100000e-06,-5.912000e-01
4.200000e-06,-9.189333e-01
4.300000e-06,-1.122400e+00
4.400000e-06,-1.158533e+00
4.500000e-06,-1.004933e+00
4.600000e-06,-7.585334e-01
4.700000e-06,-3.945333e-01
4.800000e-06,-7.586667e-02
4.900000e-06,1.864000e-01
5.000000e-06,3.785333e-01
5.100000e-06,4.146667e-01
5.200000e-06,3.422667e-01
5.300000e-06,1.796000e-01
5.400000e-06,-4.426667e-02
5.500000e-06,-1.120000e-01
5.600000e-06,2.133333e-02
5.700000e-06,2.768000e-01
5.800000e-06,5.684000e-01
5.900000e-06,8.554667e-01
6.000000e-06,9.933333e-01
6.100000e-06,9.458667e-01
6.200000e-06,7.265334e-01
6.300000e-06,3.808000e-01
6.400000e-06,-9.626666e-02
6.500000e-06,-5.392000e-01
6.600000e-06,-8.896000e-01
6.700000e-06,-1.102133e+00
6.800000e-06,-1.165333e+00
6.900000e-06,-1.043333e+00
7.000000e-06,-7.878667e-01
7.100000e-06,-4.510667e-01
7.200000e-06,-1.233333e-01
7.300000e-06,1.592000e-01
7.400000e-06,3.513333e-01
7.500000e-06,4.328000e-01
7.600000e-06,3.649333e-01
7.700000e-06,2.112000e-01
7.800000e-06,-1.026667e-02
7.900000e-06,-1.210667e-01
8.000000e-06,-1.253333e-02
8.100000e-06,2.564000e-01
8.200000e-06,5.457333e-01
8.300000e-06,8.192000e-01
8.400000e-06,9.888000e-01
8.500000e-06,9.594667e-01
8.600000e-06,7.650667e-01
8.700000e-06,4.349333e-01
8.800000e-06,-3.520000e-02
8.900000e-06,-4.917333e-01
9.000000e-06,-8.580000e-01
9.100000e-06,-1.088533e+00
9.200000e-06,-1.165333e+00
9.300000e-06,-1.059200e+00
9.400000e-06,-8.240000e-01
9.500000e-06,-4.894667e-01
9.600000e-06,-1.662667e-01
9.700000e-06,1.344000e-01
9.800000e-06,3.445333e-01
9.900000e-06,4.237333e-01
1.000000e-05,3.785333e-01
1.010000e-05,2.225333e-01
1.020000e-05,-1.200000e-03
1.030000e-05,-1.392000e-01
1.040000e-05,-2.840000e-02
1.050000e-05,2.384000e-01
1.060000e-05,5.073333e-01
1.070000e-05,8.057333e-01
1.080000e-05,9.549333e-01
1.090000e-05,9.661334e-01
1.100000e-05,8.057333e-01
1.110000e-05,4.757333e-01
1.120000e-05,3.040000e-02
1.130000e-05,-4.081333e-01
1.140000e-05,-8.128000e-01
1.150000e-05,-1.068133e+00
1.160000e-05,-1.149600e+00
1.170000e-05,-1.088533e+00
1.180000e-05,-8.625333e-01
1.190000e-05,-5.280000e-01
1.200000e-05,-2.024000e-01
1.210000e-05,8.466667e-02
1.220000e-05,3.288000e-01
1.230000e-05,4.214667e-01
1.240000e-05,3.988000e-01
1.250000e-05,2.586667e-01
1.260000e-05,4.400000e-02
1.270000e-05,-1.210667e-01
1.280000e-05,-4.653334e-02
1.290000e-05,1.818667e-01
1.300000e-05,4.576000e-01
1.310000e-05,7.628000e-01
1.320000e-05,9.661334e-01
1.330000e-05,9.956000e-01
1.340000e-05,8.328000e-01
1.350000e-05,5.344000e-01
1.360000e-05,7.560000e-02
1.370000e-05,-3.742667e-01
1.380000e-05,-7.494667e-01
1.390000e-05,-1.043333e+00
1.400000e-05,-1.160800e+00
1.410000e-05,-1.102133e+00
1.420000e-05,-9.100000e-01
1.430000e-05,-5.821334e-01
1.440000e-05,-2.521333e-01
1.450000e-05,6.426667e-02
1.460000e-05,3.129333e-01
1.470000e-05,4.282667e-01
1.480000e-05,4.078667e-01
1.490000e-05,2.745333e-01
1.500000e-05,5.520000e-02
1.510000e-05,-1.233333e-01
1.520000e-05,-6.906667e-02
1.530000e-05,1.614667e-01
1.540000e-05,4.237333e-01
1.550000e-05,7.242666e-01
1.560000e-05,9.549333e-01
1.570000e-05,9.978667e-01
1.580000e-05,8.554667e-01
1.590000e-05,5.729333e-01
1.600000e-05,1.434667e-01
1.610000e-05,-3.290667e-01
1.620000e-05,-7.178667e-01
1.630000e-05,-1.020667e+00
1.640000e-05,-1.154133e+00
1.650000e-05,-1.115600e+00
1.660000e-05,-9.348000e-01
1.670000e-05,-6.116000e-01
1.680000e-05,-2.973333e-01
1.690000e-05,2.133333e-02
1.700000e-05,2.881333e-01
1.710000e-05,4.101333e-01
1.720000e-05,4.056000e-01
1.730000e-05,2.925333e-01
1.740000e-05,9.813333e-02
1.750000e-05,-8.720000e-02
1.760000e-05,-7.586667e-02
1.770000e-05,1.208000e-01
1.780000e-05,3.920000e-01
1.790000e-05,6.972000e-01
1.800000e-05,9.277334e-01
1.810000e-05,9.842667e-01
1.820000e-05,8.825334e-01
1.830000e-05,6.249334e-01
1.840000e-05,1.909333e-01
1.850000e-05,-2.657333e-01
1.860000e-05,-6.770667e-01
1.870000e-05,-9.777334e-01
1.880000e-05,-1.149600e+00
1.890000e-05,-1.120133e+00
1.900000e-05,-9.574667e-01
1.910000e-05,-6.590667e-01
1.920000e-05,-3.290667e-01
1.930000e-05,-1.026667e-02
1.940000e-05,2.654667e-01
1.950000e-05,4.010667e-01
1.960000e-05,4.305333e-01
1.970000e-05,3.174667e-01
1.980000e-05,1.253333e-01
1.990000e-05,-8.266667e-02
2.000000e-05,-1.052000e-01
2.010000e-05,8.920000e-02
2.020000e-05,3.581333e-01
2.030000e-05,6.542667e-01
2.040000e-05,9.254667e-01
2.050000e-05,1.009200e+00
2.060000e-05,8.938667e-01
2.070000e-05,6.656000e-01
2.080000e-05,2.518667e-01
2.090000e-05,-2.114667e-01
2.100000e-05,-6.318667e-01
2.110000e-05,-9.574667e-01
2.120000e-05,-1.131467e+00
2.130000e-05,-1.136000e+00
2.140000e-05,-9.845334e-01
2.150000e-05,-6.974667e-01
2.160000e-05,-3.856000e-01
2.170000e-05,-5.093333e-02
2.180000e-05,2.316000e-01
2.190000e-05,3.988000e-01
2.200000e-05,4.192000e-01
2.210000e-05,3.377333e-01
2.220000e-05,1.524000e-01
2.230000e-05,-5.773333e-02
2.240000e-05,-1.074667e-01
2.250000e-05,6.200000e-02
2.260000e-05,3.152000e-01
2.270000e-05,6.226667e-01
2.280000e-05,8.780000e-01
2.290000e-05,9.865333e-01
2.300000e-05,9.277334e-01
2.310000e-05,6.994666e-01
2.320000e-05,3.061333e-01
2.330000e-05,-1.549333e-01
2.340000e-05,-5.709333e-01
2.350000e-05,-9.234667e-01
2.360000e-05,-1.122400e+00
