Time(s),CH1V
-2.000000e-05,-2.114667e-01
-1.990000e-05,2.021333e-01
-1.980000e-05,4.192000e-01
-1.970000e-05,3.830667e-01
-1.960000e-05,4.282667e-01
-1.950000e-05,7.108000e-01
-1.940000e-05,1.009200e+00
-1.930000e-05,1.294000e+00
-1.920000e-05,1.553867e+00
-1.910000e-05,1.777733e+00
-1.900000e-05,1.929067e+00
-1.890000e-05,1.956267e+00
-1.880000e-05,1.788933e+00
-1.870000e-05,1.325600e+00
-1.860000e-05,6.113333e-01
-1.850000e-05,-2.589333e-01
-1.840000e-05,-1.197067e+00
-1.830000e-05,-1.976933e+00
-1.820000e-05,-2.476400e+00
-1.810000e-05,-2.691200e+00
-1.800000e-05,-2.542000e+00
-1.790000e-05,-2.103467e+00
-1.780000e-05,-1.504400e+00
-1.770000e-05,-8.580000e-01
-1.760000e-05,-2.770667e-01
-1.750000e-05,1.614667e-01
-1.740000e-05,4.033333e-01
-1.730000e-05,4.010667e-01
-1.720000e-05,4.146667e-01
-1.710000e-05,6.858667e-01
-1.700000e-05,9.617333e-01
-1.690000e-05,1.251067e+00
-1.680000e-05,1.531333e+00
-1.670000e-05,1.743733e+00
-1.660000e-05,1.931333e+00
-1.650000e-05,1.960800e+00
-1.640000e-05,1.816133e+00
-1.630000e-05,1.411467e+00
-1.620000e-05,7.153333e-01
-1.610000e-05,-1.640000e-01
-1.600000e-05,-1.084000e+00
-1.590000e-05,-1.897733e+00
-1.580000e-05,-2.438000e+00
-1.570000e-05,-2.691200e+00
-1.560000e-05,-2.584933e+00
-1.550000e-05,-2.164533e+00
-1.540000e-05,-1.579067e+00
-1.530000e-05,-9.484000e-01
-1.520000e-05,-3.425333e-01
-1.510000e-05,1.253333e-01
-1.500000e-05,3.897333e-01
-1.490000e-05,4.169333e-01
-1.480000e-05,3.808000e-01
-1.470000e-05,6.181334e-01
-1.460000e-05,9.345334e-01
-1.450000e-05,1.223867e+00
-1.440000e-05,1.515467e+00
-1.430000e-05,1.723467e+00
-1.420000e-05,1.886133e+00
-1.410000e-05,1.949467e+00
-1.400000e-05,1.836400e+00
-1.390000e-05,1.479333e+00
-1.380000e-05,8.192000e-01
-1.370000e-05,-3.746667e-02
-1.360000e-05,-9.686667e-01
-1.350000e-05,-1.805067e+00
-1.340000e-05,-2.374667e+00
-1.330000e-05,-2.677600e+00
-1.320000e-05,-2.625600e+00
-1.310000e-05,-2.236800e+00
-1.300000e-05,-1.653600e+00
-1.290000e-05,-1.016133e+00
-1.280000e-05,-4.036000e-01
-1.270000e-05,7.560000e-02
-1.260000e-05,3.717333e-01
-1.250000e-05,4.146667e-01
-1.240000e-05,3.762667e-01
-1.230000e-05,6.158667e-01
-1.220000e-05,9.006667e-01
-1.210000e-05,1.183200e+00
-1.200000e-05,1.458933e+00
-1.190000e-05,1.687200e+00
-1.180000e-05,1.883867e+00
-1.170000e-05,1.956267e+00
-1.160000e-05,1.888400e+00
-1.150000e-05,1.538133e+00
-1.140000e-05,9.006667e-01
-1.130000e-05,7.786667e-02
-1.120000e-05,-8.421333e-01
-1.110000e-05,-1.712400e+00
-1.100000e-05,-2.318133e+00
-1.090000e-05,-2.661733e+00
-1.080000e-05,-2.646000e+00
-1.070000e-05,-2.291067e+00
-1.060000e-05,-1.748533e+00
-1.050000e-05,-1.104400e+00
-1.040000e-05,-4.962667e-01
-1.030000e-05,2.133333e-02
-1.020000e-05,3.490667e-01
-1.010000e-05,4.282667e-01
-1.000000e-05,3.740000e-01
-9.900000e-06,5.706667e-01
-9.800000e-06,8.622667e-01
-9.700000e-06,1.140267e+00
-9.600000e-06,1.434133e+00
-9.500000e-06,1.687200e+00
-9.400000e-06,1.861333e+00
-9.300000e-06,1.935867e+00
-9.200000e-06,1.886133e+00
-9.100000e-06,1.592267e+00
-9.000000e-06,1.009200e+00
-8.900000e-06,1.909333e-01
-8.800000e-06,-7.313333e-01
-8.700000e-06,-1.608400e+00
-8.600000e-06,-2.264000e+00
-8.500000e-06,-2.636933e+00
-8.400000e-06,-2.668533e+00
-8.300000e-06,-2.349867e+00
-8.200000e-06,-1.816400e+00
-8.100000e-06,-1.176667e+00
-8.000000e-06,-5.528000e-01
-7.900000e-06,-4.880000e-02
-7.800000e-06,3.265333e-01
-7.700000e-06,4.192000e-01
-7.600000e-06,3.310667e-01
-7.500000e-06,9.813333e-02
-7.400000e-06,-2.521333e-01
-7.300000e-06,-5.980000e-01
-7.200000e-06,-8.760000e-01
-7.100000e-06,-1.027467e+00
-7.000000e-06,-9.732000e-01
-6.900000e-06,-8.014667e-01
-6.800000e-06,-4.894667e-01
-6.700000e-06,-7.133333e-02
-6.600000e-06,3.400000e-01
-6.500000e-06,6.813334e-01
-6.400000e-06,9.097334e-01
-6.300000e-06,9.820000e-01
-6.200000e-06,9.729334e-01
-6.100000e-06,8.080000e-01
-6.000000e-06,5.909333e-01
-5.900000e-06,3.942667e-01
-5.800000e-06,2.157333e-01
-5.700000e-06,1.026667e-01
-5.600000e-06,9.146667e-02
-5.500000e-06,1.682667e-01
-5.400000e-06,3.310667e-01
-5.300000e-06,5.050667e-01
-5.200000e-06,6.724000e-01
-5.100000e-06,8.464000e-01
-5.000000e-06,9.277334e-01
-4.900000e-06,9.526667e-01
-4.800000e-06,8.600000e-01
-4.700000e-06,7.221333e-01
-4.600000e-06,5.480000e-01
-4.500000e-06,3.400000e-01
-4.400000e-06,1.864000e-01
-4.300000e-06,8.013333e-02
-4.200000e-06,2.586667e-02
-4.100000e-06,2.133333e-02
-4.000000e-06,6.426667e-02
-3.900000e-06,1.185333e-01
-3.800000e-06,2.021333e-01
-3.700000e-06,2.428000e-01
-3.600000e-06,2.428000e-01
-3.500000e-06,2.338667e-01
-3.400000e-06,1.773333e-01
-3.300000e-06,6.200000e-02
-3.200000e-06,-6.453333e-02
-3.100000e-06,-2.046667e-01
-3.000000e-06,-2.884000e-01
-2.900000e-06,-3.968000e-01
-2.800000e-06,-4.285333e-01
-2.700000e-06,-4.126667e-01
-2.600000e-06,-3.833333e-01
-2.500000e-06,-3.448000e-01
-2.400000e-06,-2.770667e-01
-2.300000e-06,-2.341333e-01
-2.200000e-06,-1.889333e-01
-2.100000e-06,-2.024000e-01
-2.000000e-06,-2.364000e-01
-1.900000e-06,-2.498667e-01
-1.800000e-06,-2.996000e-01
-1.700000e-06,-3.448000e-01
-1.600000e-06,-3.900000e-01
-1.500000e-06,-4.126667e-01
-1.400000e-06,-3.742667e-01
-1.300000e-06,-3.765333e-01
-1.200000e-06,-3.268000e-01
-1.100000e-06,-2.498667e-01
-1.000000e-06,-1.934667e-01
-9.000000e-07,-1.233333e-01
-8.000000e-07,-8.946667e-02
-7.000000e-07,-5.320000e-02
-6.000000e-07,-2.613333e-02
-5.000000e-07,-5.546667e-02
-4.000000e-07,-6.453333e-02
-3.000000e-07,4.840000e-02
-2.000000e-07,3.356000e-01
-1.000000e-07,6.542667e-01
5.293956e-21,9.572000e-01
1.000000e-07,1.239733e+00
2.000000e-07,1.483867e+00
3.000000e-07,1.621733e+00
4.000000e-07,1.689467e+00
5.000000e-07,1.605867e+00
6.000000e-07,1.275867e+00
7.000000e-07,7.153333e-01
8.000000e-07,3.493333e-02
9.000000e-07,-6.997333e-01
1.000000e-06,-1.316800e+00
1.100000e-06,-1.764400e+00
1.200000e-06,-1.961067e+00
1.300000e-06,-1.888667e+00
1.400000e-06,-1.588133e+00
1.500000e-06,-1.145067e+00
1.600000e-06,-6.658667e-01
1.700000e-06,-2.318667e-01
1.800000e-06,1.094667e-01
1.900000e-06,2.586667e-01
2.000000e-06,2.496000e-01
2.100000e-06,2.654667e-01
2.200000e-06,4.553334e-01
2.300000e-06,7.130667e-01
2.400000e-06,9.594667e-01
2.500000e-06,1.178667e+00
2.600000e-06,1.409200e+00
2.700000e-06,1.529067e+00
2.800000e-06,1.565200e+00
2.900000e-06,1.479333e+00
3.000000e-06,1.099600e+00
3.100000e-06,4.598667e-01
3.200000e-06,-3.336000e-01
3.300000e-06,-1.183467e+00
3.400000e-06,-1.906800e+00
3.500000e-06,-2.453867e+00
3.600000e-06,-2.684400e+00
3.700000e-06,-2.569067e+00
3.800000e-06,-2.191600e+00
3.900000e-06,-1.628800e+00
4.000000e-06,-1.002667e+00
4.100000e-06,-4.104000e-01
4.200000e-06,7.333333e-02
4.300000e-06,3.061333e-01
4.400000e-06,3.333333e-01
4.500000e-06,3.038667e-01
4.600000e-06,5.480000e-01
4.700000e-06,8.712000e-01
4.800000e-06,1.178667e+00
4.900000e-06,1.470267e+00
5.000000e-06,1.743733e+00
5.100000e-06,1.886133e+00
5.200000e-06,1.963067e+00
5.300000e-06,1.881600e+00
5.400000e-06,1.529067e+00
5.500000e-06,8.373333e-01
5.600000e-06,-3.746667e-02
5.700000e-06,-9.777334e-01
5.800000e-06,-1.800533e+00
5.900000e-06,-2.431200e+00
6.000000e-06,-2.713733e+00
6.100000e-06,-2.643733e+00
6.200000e-06,-2.248133e+00
6.300000e-06,-1.653600e+00
6.400000e-06,-9.936000e-01
6.500000e-06,-3.538667e-01
6.600000e-06,1.569333e-01
6.700000e-06,4.282667e-01
6.800000e-06,4.824000e-01
6.900000e-06,4.666667e-01
7.000000e-06,6.949334e-01
7.100000e-06,9.933333e-01
7.200000e-06,1.273600e+00
7.300000e-06,1.533600e+00
7.400000e-06,1.793467e+00
7.500000e-06,1.935867e+00
7.600000e-06,2.012800e+00
7.700000e-06,1.967600e+00
7.800000e-06,1.590133e+00
7.900000e-06,9.504000e-01
8.000000e-06,1.140000e-01
8.100000e-06,-8.240000e-01
8.200000e-06,-1.651333e+00
8.300000e-06,-2.300133e+00
8.400000e-06,-2.621067e+00
8.500000e-06,-2.600800e+00
8.600000e-06,-2.264000e+00
8.700000e-06,-1.705600e+00
8.800000e-06,-1.088533e+00
8.900000e-06,-4.917333e-01
9.000000e-06,3.720000e-02
9.100000e-06,3.333333e-01
9.200000e-06,3.988000e-01
9.300000e-06,3.830667e-01
9.400000e-06,5.729333e-01
9.500000e-06,8.532000e-01
9.600000e-06,1.124400e+00
9.700000e-06,1.402400e+00
9.800000e-06,1.682800e+00
9.900000e-06,1.831867e+00
1.000000e-05,1.908800e+00
1.010000e-05,1.881600e+00
1.020000e-05,1.578800e+00
1.030000e-05,9.865333e-01
1.040000e-05,1.705333e-01
1.050000e-05,-7.404000e-01
1.060000e-05,-1.601600e+00
1.070000e-05,-2.279733e+00
1.080000e-05,-2.643733e+00
1.090000e-05,-2.648267e+00
1.100000e-05,-2.352133e+00
1.110000e-05,-1.807333e+00
1.120000e-05,-1.172133e+00
1.130000e-05,-5.505334e-01
1.140000e-05,-2.160000e-02
1.150000e-05,3.084000e-01
1.160000e-05,4.192000e-01
1.170000e-05,3.649333e-01
1.180000e-05,5.298667e-01
1.190000e-05,8.192000e-01
1.200000e-05,1.110800e+00
1.210000e-05,1.397867e+00
1.220000e-05,1.682800e+00
1.230000e-05,1.831867e+00
1.240000e-05,1.933600e+00
1.250000e-05,1.933600e+00
1.260000e-05,1.671467e+00
1.270000e-05,1.095067e+00
1.280000e-05,3.016000e-01
1.290000e-05,-6.184000e-01
1.300000e-05,-1.493200e+00
1.310000e-05,-2.216533e+00
1.320000e-05,-2.625600e+00
1.330000e-05,-2.673067e+00
1.340000e-05,-2.397333e+00
1.350000e-05,-1.881867e+00
1.360000e-05,-1.251333e+00
1.370000e-05,-6.229333e-01
1.380000e-05,-6.453333e-02
1.390000e-05,2.813333e-01
1.400000e-05,4.169333e-01
1.410000e-05,3.965333e-01
1.420000e-05,5.209333e-01
1.430000e-05,8.034667e-01
1.440000e-05,1.081467e+00
1.450000e-05,1.364000e+00
1.460000e-05,1.644267e+00
1.470000e-05,1.831867e+00
1.480000e-05,1.929067e+00
1.490000e-05,1.963067e+00
1.500000e-05,1.718933e+00
1.510000e-05,1.185467e+00
1.520000e-05,4.078667e-01
1.530000e-05,-5.030667e-01
1.540000e-05,-1.384667e+00
1.550000e-05,-2.137333e+00
1.560000e-05,-2.569067e+00
1.570000e-05,-2.684400e+00
1.580000e-05,-2.449333e+00
1.590000e-05,-1.958800e+00
1.600000e-05,-1.344000e+00
1.610000e-05,-7.224000e-01
1.620000e-05,-1.324000e-01
1.630000e-05,2.405333e-01
1.640000e-05,4.146667e-01
1.650000e-05,3.942667e-01
1.660000e-05,4.869334e-01
1.670000e-05,7.424000e-01
1.680000e-05,1.029467e+00
1.690000e-05,1.334667e+00
1.700000e-05,1.610400e+00
1.710000e-05,1.791200e+00
1.720000e-05,1.913333e+00
1.730000e-05,1.938133e+00
1.740000e-05,1.752800e+00
1.750000e-05,1.255467e+00
1.760000e-05,5.073333e-01
1.770000e-05,-3.900000e-01
1.780000e-05,-1.280667e+00
1.790000e-05,-2.065067e+00
1.800000e-05,-2.551067e+00
1.810000e-05,-2.684400e+00
1.820000e-05,-2.503600e+00
1.830000e-05,-2.031067e+00
1.840000e-05,-1.420800e+00
1.850000e-05,-7.810667e-01
1.860000e-05,-1.934667e-01
1.870000e-05,1.953333e-01
1.880000e-05,3.897333e-01
1.890000e-05,4.033333e-01
1.900000e-05,4.576000e-01
1.910000e-05,7.062667e-01
1.920000e-05,9.956000e-01
1.930000e-05,1.296267e+00
1.940000e-05,1.569733e+00
1.950000e-05,1.768667e+00
1.960000e-05,1.888400e+00
1.970000e-05,1.972133e+00
1.980000e-05,1.809333e+00
1.990000e-05,1.341467e+00
2.000000e-05,6.204000e-01
2.010000e-05,-2.612000e-01
2.020000e-05,-1.165333e+00
2.030000e-05,-1.981333e+00
2.040000e-05,-2.499067e+00
2.050000e-05,-2.684400e+00
2.060000e-05,-2.542000e+00
2.070000e-05,-2.103467e+00
2.080000e-05,-1.506667e+00
2.090000e-05,-8.714667e-01
2.100000e-05,-2.657333e-01
2.110000e-05,1.569333e-01
2.120000e-05,3.897333e-01
2.130000e-05,4.078667e-01
2.140000e-05,4.508000e-01
2.150000e-05,6.701334e-01
2.160000e-05,9.617333e-01
2.170000e-05,1.251067e+00
2.180000e-05,1.551600e+00
2.190000e-05,1.741467e+00
2.200000e-05,1.897467e+00
2.210000e-05,1.958533e+00
2.220000e-05,1.838667e+00
2.230000e-05,1.413733e+00
2.240000e-05,7.085333e-01
2.250000e-05,-1.617333e-01
2.260000e-05,-1.070400e+00
2.270000e-05,-1.906800e+00
2.280000e-05,-2.456133e+00
2.290000e-05,-2.677600e+00
2.300000e-05,-2.573600e+00
2.310000e-05,-2.157733e+00
2.320000e-05,-1.588133e+00
2.330000e-05,-9.484000e-01
2.340000e-05,-3.381333e-01
2.350000e-05,1.072000e-01
2.360000e-05,3.604000e-01
2.370000e-05,4.169333e-01
2.380000e-05,4.033333e-01
2.390000e-05,6.226667e-01
2.400000e-05,9.254667e-01
2.410000e-05,1.196800e+00
2.420000e-05,1.517733e+00
2.430000e-05,1.734800e+00
2.440000e-05,1.877200e+00
2.450000e-05,1.960800e+00
2.460000e-05,1.870400e+00
2.470000e-05,1.483867e+00
2.480000e-05,8.057333e-01
2.490000e-05,-4.426667e-02
2.500000e-05,-9.642667e-01
2.510000e-05,-1.802800e+00
2.520000e-05,-2.408667e+00
2.530000e-05,-2.668533e+00
2.540000e-05,-2.605200e+00
2.550000e-05,-2.232267e+00
2.560000e-05,-1.667200e+00
2.570000e-05,-1.007200e+00
2.580000e-05,-3.900000e-01
2.590000e-05,6.426667e-02
2.600000e-05,3.445333e-01
2.610000e-05,4.305333e-01
2.620000e-05,3.874667e-01
2.630000e-05,6.045333e-01
2.640000e-05,8.848000e-01
2.650000e-05,1.187733e+00
2.660000e-05,1.474800e+00
2.670000e-05,1.696267e+00
2.680000e-05,1.859067e+00
2.690000e-05,1.956267e+00
2.700000e-05,1.917867e+00
2.710000e-05,1.540400e+00
2.720000e-05,9.006667e-01
2.730000e-05,6.200000e-02
2.740000e-05,-8.421333e-01
2.750000e-05,-1.714667e+00
2.760000e-05,-2.340800e+00
2.770000e-05,-2.650533e+00
2.780000e-05,-2.625600e+00
2.790000e-05,-2.302400e+00
2.800000e-05,-1.735067e+00
2.810000e-05,-1.111067e+00
2.820000e-05,-4.760000e-01
2.830000e-05,1.226667e-02
2.840000e-05,3.288000e-01
2.850000e-05,4.260000e-01
2.860000e-05,3.874667e-01
2.870000e-05,5.684000e-01
2.880000e-05,8.577334e-01
2.890000e-05,1.133467e+00
2.900000e-05,1.452133e+00
2.910000e-05,1.687200e+00
2.920000e-05,1.852267e+00
2.930000e-05,1.960800e+00
2.940000e-05,1.902000e+00
2.950000e-05,1.605867e+00
2.960000e-05,9.978667e-01
2.970000e-05,1.796000e-01
2.980000e-05,-7.110667e-01
2.990000e-05,-1.599333e+00
3.000000e-05,-2.286533e+00
3.010000e-05,-2.621067e+00
3.020000e-05,-2.652800e+00
3.030000e-05,-2.349867e+00
3.040000e-05,-1.814133e+00
3.050000e-05,-1.185733e+00
3.060000e-05,-5.482666e-01
3.070000e-05,-4.200000e-02
3.080000e-05,2.970667e-01
3.090000e-05,4.349333e-01
3.100000e-05,3.785333e-01
3.110000e-05,5.366667e-01
3.120000e-05,8.214667e-01
3.130000e-05,1.095067e+00
3.140000e-05,1.418267e+00
3.150000e-05,1.660133e+00
3.160000e-05,1.818400e+00
3.170000e-05,1.942667e+00
3.180000e-05,1.929067e+00
3.190000e-05,1.669200e+00
3.200000e-05,1.088267e+00
3.210000e-05,2.813333e-01
3.220000e-05,-6.138667e-01
3.230000e-05,-1.518000e+00
3.240000e-05,-2.209733e+00
3.250000e-05,-2.607467e+00
3.260000e-05,-2.661733e+00
3.270000e-05,-2.399600e+00
3.280000e-05,-1.879733e+00
3.290000e-05,-1.267067e+00
3.300000e-05,-6.184000e-01
3.310000e-05,-1.006667e-01
3.320000e-05,2.654667e-01
3.330000e-05,4.260000e-01
3.340000e-05,3.942667e-01
3.350000e-05,5.096000e-01
3.360000e-05,7.989333e-01
3.370000e-05,1.061067e+00
3.380000e-05,1.373067e+00
3.390000e-05,1.626267e+00
3.400000e-05,1.809333e+00
3.410000e-05,1.929067e+00
3.420000e-05,1.960800e+00
3.430000e-05,1.721200e+00
3.440000e-05,1.171867e+00
3.450000e-05,3.920000e-01
3.460000e-05,-4.985333e-01
3.470000e-05,-1.418533e+00
3.480000e-05,-2.144133e+00
3.490000e-05,-2.587200e+00
3.500000e-05,-2.679867e+00
3.510000e-05,-2.449333e+00
3.520000e-05,-1.961067e+00
3.530000e-05,-1.355200e+00
3.540000e-05,-7.110667e-01
3.550000e-05,-1.572000e-01
3.560000e-05,2.338667e-01
3.570000e-05,4.124000e-01
3.580000e-05,4.056000e-01
3.590000e-05,4.914667e-01
3.600000e-05,7.469333e-01
3.610000e-05,1.015867e+00
3.620000e-05,1.330133e+00
3.630000e-05,1.599067e+00
3.640000e-05,1.786667e+00
3.650000e-05,1.935867e+00
3.660000e-05,1.938133e+00
3.670000e-05,1.759600e+00
3.680000e-05,1.248800e+00
3.690000e-05,4.937333e-01
3.700000e-05,-3.856000e-01
3.710000e-05,-1.316800e+00
3.720000e-05,-2.067333e+00
3.730000e-05,-2.532933e+00
3.740000e-05,-2.686667e+00
3.750000e-05,-2.503600e+00
3.760000e-05,-2.040133e+00
3.770000e-05,-1.432133e+00
3.780000e-05,-7.630666e-01
3.790000e-05,-2.250667e-01
3.800000e-05,1.930667e-01
3.810000e-05,4.033333e-01
3.820000e-05,4.078667e-01
3.830000e-05,4.530667e-01
3.840000e-05,6.994666e-01
3.850000e-05,1.000133e+00
3.860000e-05,1.300800e+00
3.870000e-05,1.551600e+00
3.880000e-05,1.761867e+00
3.890000e-05,1.917867e+00
3.900000e-05,1.981067e+00
3.910000e-05,1.809333e+00
3.920000e-05,1.327867e+00
3.930000e-05,6.000000e-01
3.940000e-05,-2.748000e-01
3.950000e-05,-1.208267e+00
3.960000e-05,-1.988133e+00
3.970000e-05,-2.499067e+00
3.980000e-05,-2.695733e+00
3.990000e-05,-2.544267e+00
4.000000e-05,-2.105733e+00
4.010000e-05,-1.518000e+00
4.020000e-05,-8.534667e-01
4.030000e-05,-2.884000e-01
4.040000e-05,1.434667e-01
4.050000e-05,3.942667e-01
4.060000e-05,4.056000e-01
4.070000e-05,2.405333e-01
4.080000e-05,-7.360000e-02
4.090000e-05,-4.442667e-01
4.100000e-05,-7.517334e-01
4.110000e-05,-9.913334e-01
4.120000e-05,-1.036533e+00
4.130000e-05,-9.077333e-01
4.140000e-05,-6.432000e-01
4.150000e-05,-2.680000e-01
4.160000e-05,1.434667e-01
4.170000e-05,5.209333e-01
4.180000e-05,8.102667e-01
4.190000e-05,9.549333e-01
4.200000e-05,9.729334e-01
4.210000e-05,9.142667e-01
4.220000e-05,7.356000e-01
4.230000e-05,5.073333e-01
4.240000e-05,2.970667e-01
4.250000e-05,1.478667e-01
4.260000e-05,9.586667e-02
4.270000e-05,1.094667e-01
4.280000e-05,2.202667e-01
4.290000e-05,4.056000e-01
4.300000e-05,6.045333e-01
4.310000e-05,7.898667e-01
4.320000e-05,9.006667e-01
4.330000e-05,9.390666e-01
4.340000e-05,9.186667e-01
4.350000e-05,7.898667e-01
4.360000e-05,6.316000e-01
4.370000e-05,4.508000e-01
4.380000e-05,2.700000e-01
4.390000e-05,1.366667e-01
4.400000e-05,3.493333e-02
4.410000e-05,-1.200000e-03
4.420000e-05,3.266667e-02
4.430000e-05,6.880000e-02
4.440000e-05,1.366667e-01
4.450000e-05,2.270667e-01
4.460000e-05,2.541333e-01
4.470000e-05,2.586667e-01
4.480000e-05,2.044000e-01
4.490000e-05,9.586667e-02
4.500000e-05,1.000000e-02
4.510000e-05,-1.324000e-01
4.520000e-05,-2.748000e-01
4.530000e-05,-3.425333e-01
4.540000e-05,-4.081333e-01
4.550000e-05,-4.240000e-01
4.560000e-05,-4.013333e-01
4.570000e-05,-3.652000e-01
4.580000e-05,-3.018667e-01
4.590000e-05,-2.702667e-01
4.600000e-05,-2.386667e-01
4.610000e-05,-2.092000e-01
4.620000e-05,-1.889333e-01
4.630000e-05,-2.318667e-01
4.640000e-05,-2.838667e-01
4.650000e-05,-3.358667e-01
4.660000e-05,-3.629333e-01
4.670000e-05,-4.058667e-01
4.680000e-05,-4.240000e-01
4.690000e-05,-3.900000e-01
4.700000e-05,-3.425333e-01
4.710000e-05,-2.973333e-01
4.720000e-05,-2.160000e-01
4.730000e-05,-1.662667e-01
4.740000e-05,-1.165333e-01
4.750000e-05,-8.493333e-02
4.760000e-05,-6.680000e-02
4.770000e-05,-3.520000e-02
4.780000e-05,-4.426667e-02
4.790000e-05,-1.480000e-02
4.800000e-05,1.886667e-01
4.810000e-05,4.802667e-01
4.820000e-05,7.989333e-01
4.830000e-05,1.079200e+00
4.840000e-05,1.334667e+00
4.850000e-05,1.549333e+00
4.860000e-05,1.689467e+00
4.870000e-05,1.678267e+00
4.880000e-05,1.479333e+00
4.890000e-05,1.022667e+00
4.900000e-05,4.033333e-01
4.910000e-05,-3.336000e-01
4.920000e-05,-1.034267e+00
4.930000e-05,-1.558667e+00
4.940000e-05,-1.904533e+00
4.950000e-05,-1.952000e+00
4.960000e-05,-1.766667e+00
4.970000e-05,-1.384667e+00
4.980000e-05,-9.009333e-01
4.990000e-05,-4.510667e-01
5.000000e-05,-4.653334e-02
5.010000e-05,2.112000e-01
5.020000e-05,2.993333e-01
5.030000e-05,2.225333e-01
5.040000e-05,3.422667e-01
5.050000e-05,5.729333e-01
5.060000e-05,8.328000e-01
5.070000e-05,1.070133e+00
5.080000e-05,1.305200e+00
5.090000e-05,1.477067e+00
5.100000e-05,1.574267e+00
5.110000e-05,1.560667e+00
5.120000e-05,1.327867e+00
5.130000e-05,7.876000e-01
5.140000e-05,7.333333e-02
5.150000e-05,-7.788000e-01
5.160000e-05,-1.603867e+00
5.170000e-05,-2.234533e+00
5.180000e-05,-2.596267e+00
5.190000e-05,-2.654933e+00
5.200000e-05,-2.413067e+00
5.210000e-05,-1.931600e+00
5.220000e-05,-1.303200e+00
5.230000e-05,-6.952000e-01
5.240000e-05,-1.685333e-01
5.250000e-05,2.134667e-01
5.260000e-05,3.536000e-01
5.270000e-05,3.197334e-01
5.280000e-05,4.237333e-01
5.290000e-05,7.085333e-01
5.300000e-05,1.009200e+00
5.310000e-05,1.316533e+00
5.320000e-05,1.590133e+00
5.330000e-05,1.813867e+00
5.340000e-05,1.944933e+00
5.350000e-05,1.976533e+00
5.360000e-05,1.739200e+00
5.370000e-05,1.196800e+00
5.380000e-05,4.237333e-01
5.390000e-05,-5.098667e-01
5.400000e-05,-1.436667e+00
5.410000e-05,-2.162267e+00
5.420000e-05,-2.607467e+00
5.430000e-05,-2.702400e+00
5.440000e-05,-2.476400e+00
5.450000e-05,-1.965600e+00
5.460000e-05,-1.312267e+00
5.470000e-05,-6.861333e-01
