Time(s),CH1V
-7.000000e-06,-5.141333e-01
-6.930000e-06,-5.465667e-01
-6.860000e-06,-5.366667e-01
-6.790000e-06,-5.463000e-01
-6.720000e-06,-5.443667e-01
-6.650000e-06,-4.993000e-01
-6.580000e-06,-4.789667e-01
-6.510000e-06,-3.836333e-01
-6.440000e-06,-2.537000e-01
-6.370000e-06,-9.710000e-02
-6.300000e-06,8.093333e-02
-6.230000e-06,2.567667e-01
-6.160000e-06,4.298667e-01
-6.090000e-06,5.724334e-01
-6.020000e-06,6.870000e-01
-5.950000e-06,7.584333e-01
-5.880000e-06,7.870333e-01
-5.810000e-06,7.752000e-01
-5.740000e-06,7.194334e-01
-5.670000e-06,6.326000e-01
-5.600000e-06,5.172333e-01
-5.530000e-06,3.875333e-01
-5.460000e-06,2.540333e-01
-5.390000e-06,1.218667e-01
-5.320000e-06,4.000000e-03
-5.250000e-06,-9.270000e-02
-5.180000e-06,-1.652333e-01
-5.110000e-06,-2.075333e-01
-5.040000e-06,-2.240333e-01
-4.970000e-06,-2.146667e-01
-4.900000e-06,-1.872000e-01
-4.830000e-06,-1.394000e-01
-4.760000e-06,-8.390000e-02
-4.690000e-06,-2.540000e-02
-4.620000e-06,3.150000e-02
-4.550000e-06,7.573333e-02
-4.480000e-06,1.084000e-01
-4.410000e-06,1.205000e-01
-4.340000e-06,1.161000e-01
-4.270000e-06,9.496666e-02
-4.200000e-06,5.566667e-02
-4.130000e-06,1.800000e-03
-4.060000e-06,-5.806667e-02
-3.990000e-06,-1.196333e-01
-3.920000e-06,-1.800667e-01
-3.850000e-06,-2.405000e-01
-3.780000e-06,-2.905000e-01
-3.710000e-06,-3.284333e-01
-3.640000e-06,-3.504000e-01
-3.570000e-06,-3.548000e-01
-3.500000e-06,-3.460000e-01
-3.430000e-06,-3.240333e-01
-3.360000e-06,-2.888667e-01
-3.290000e-06,-2.493000e-01
-3.220000e-06,-2.026000e-01
-3.150000e-06,-1.482000e-01
-3.080000e-06,-1.048000e-01
-3.010000e-06,-6.026667e-02
-2.940000e-06,-2.510000e-02
-2.870000e-06,7.866667e-03
-2.800000e-06,2.763333e-02
-2.730000e-06,3.586667e-02
-2.660000e-06,4.083334e-02
-2.590000e-06,3.643334e-02
-2.520000e-06,2.490000e-02
-2.450000e-06,1.336667e-02
-2.380000e-06,5.666667e-03
-2.310000e-06,-1.110000e-02
-2.240000e-06,-1.466667e-02
-2.170000e-06,-1.853333e-02
-2.100000e-06,-1.633333e-02
-2.030000e-06,-8.366667e-03
-1.960000e-06,6.766667e-03
-1.890000e-06,2.490000e-02
-1.820000e-06,4.906667e-02
-1.750000e-06,7.543334e-02
-1.680000e-06,1.040333e-01
-1.610000e-06,1.273667e-01
-1.540000e-06,1.474333e-01
-1.470000e-06,1.653000e-01
-1.400000e-06,1.754333e-01
-1.330000e-06,1.856000e-01
-1.260000e-06,1.853333e-01
-1.190000e-06,1.837000e-01
-1.120000e-06,1.732667e-01
-1.050000e-06,1.584000e-01
-9.800000e-07,1.413667e-01
-9.100000e-07,1.183000e-01
-8.400000e-07,1.001667e-01
-7.700000e-07,7.626667e-02
-7.000000e-07,6.006667e-02
-6.300000e-07,4.796667e-02
-5.600000e-07,3.423334e-02
-4.900000e-07,2.323333e-02
-4.200000e-07,1.720000e-02
-3.500000e-07,1.006667e-02
-2.800000e-07,8.400000e-03
-2.100000e-07,7.300000e-03
-1.400000e-07,7.866667e-03
-7.000000e-08,1.500000e-02
1.220257e-20,-8.720000e-02
7.000000e-08,-1.973667e-01
1.400000e-07,-2.432667e-01
2.100000e-07,-2.877667e-01
2.800000e-07,-3.592000e-01
3.500000e-07,-3.748667e-01
4.200000e-07,-3.899667e-01
4.900000e-07,-4.204667e-01
5.600000e-07,-4.081000e-01
6.300000e-07,-3.993000e-01
7.000000e-07,-3.685333e-01
7.700000e-07,-2.908000e-01
8.400000e-07,-1.833667e-01
9.100000e-07,-5.616667e-02
9.800000e-07,8.480000e-02
1.050000e-06,2.194000e-01
1.120000e-06,3.512667e-01
1.190000e-06,4.548667e-01
1.260000e-06,5.348000e-01
1.330000e-06,5.815000e-01
1.400000e-06,5.974333e-01
1.470000e-06,5.760334e-01
1.540000e-06,5.293000e-01
1.610000e-06,4.598000e-01
1.680000e-06,3.727000e-01
1.750000e-06,2.705000e-01
1.820000e-06,1.683000e-01
1.890000e-06,6.966667e-02
1.960000e-06,-1.523333e-02
2.030000e-06,-8.116667e-02
2.100000e-06,-1.289667e-01
2.170000e-06,-1.567000e-01
2.240000e-06,-1.586333e-01
2.310000e-06,-1.449000e-01
2.380000e-06,-1.773000e-01
2.450000e-06,-3.147000e-01
2.520000e-06,-3.811667e-01
2.590000e-06,-3.883000e-01
2.660000e-06,-4.586333e-01
2.730000e-06,-4.817334e-01
2.800000e-06,-4.746000e-01
2.870000e-06,-4.943667e-01
2.940000e-06,-4.883333e-01
3.010000e-06,-4.506667e-01
3.080000e-06,-4.158000e-01
3.150000e-06,-3.358333e-01
3.220000e-06,-2.086333e-01
3.290000e-06,-5.506667e-02
3.360000e-06,1.122667e-01
3.430000e-06,2.820333e-01
3.500000e-06,4.353667e-01
3.570000e-06,5.699667e-01
3.640000e-06,6.721666e-01
3.710000e-06,7.359334e-01
3.780000e-06,7.557000e-01
3.850000e-06,7.397667e-01
3.920000e-06,6.842667e-01
3.990000e-06,5.960667e-01
4.060000e-06,4.804000e-01
4.130000e-06,3.581667e-01
4.200000e-06,2.293000e-01
4.270000e-06,1.045667e-01
4.340000e-06,-8.066666e-03
4.410000e-06,-9.683333e-02
4.480000e-06,-1.624667e-01
4.550000e-06,-2.048000e-01
4.620000e-06,-2.229333e-01
4.690000e-06,-2.166000e-01
4.760000e-06,-1.894000e-01
4.830000e-06,-3.081000e-01
4.900000e-06,-4.284333e-01
4.970000e-06,-4.465667e-01
5.040000e-06,-4.861333e-01
5.110000e-06,-5.561666e-01
5.180000e-06,-5.438333e-01
5.250000e-06,-5.432667e-01
5.320000e-06,-5.597667e-01
5.390000e-06,-5.152333e-01
5.460000e-06,-4.855667e-01
5.530000e-06,-4.160667e-01
5.600000e-06,-3.053333e-01
5.670000e-06,-1.528667e-01
5.740000e-06,1.060000e-02
5.810000e-06,1.905667e-01
5.880000e-06,3.622667e-01
5.950000e-06,5.100667e-01
6.020000e-06,6.370000e-01
6.090000e-06,7.227333e-01
6.160000e-06,7.678000e-01
6.230000e-06,7.656000e-01
6.300000e-06,7.227333e-01
6.370000e-06,6.485667e-01
6.440000e-06,5.447000e-01
6.510000e-06,4.241000e-01
6.580000e-06,2.892000e-01
6.650000e-06,1.620000e-01
6.720000e-06,4.246667e-02
6.790000e-06,-5.836667e-02
6.860000e-06,-1.394000e-01
6.930000e-06,-1.918667e-01
7.000000e-06,-2.174333e-01
7.070000e-06,-2.188000e-01
7.140000e-06,-1.883000e-01
7.210000e-06,-2.240333e-01
7.280000e-06,-3.586333e-01
7.350000e-06,-4.353000e-01
7.420000e-06,-4.449000e-01
7.490000e-06,-5.182667e-01
7.560000e-06,-5.388667e-01
7.630000e-06,-5.213000e-01
7.700000e-06,-5.465667e-01
7.770000e-06,-5.251333e-01
7.840000e-06,-4.800667e-01
7.910000e-06,-4.410667e-01
7.980000e-06,-3.581000e-01
8.050000e-06,-2.168667e-01
8.120000e-06,-5.973333e-02
8.190000e-06,1.188667e-01
8.260000e-06,2.979667e-01
8.330000e-06,4.620000e-01
8.400000e-06,5.996333e-01
8.470000e-06,7.051333e-01
8.540000e-06,7.683333e-01
8.610000e-06,7.851000e-01
8.680000e-06,7.617334e-01
8.750000e-06,6.996667e-01
8.820000e-06,6.079000e-01
8.890000e-06,4.914000e-01
8.960000e-06,3.584333e-01
9.030000e-06,2.273667e-01
9.100000e-06,9.466667e-02
9.170000e-06,-2.100000e-02
9.240000e-06,-1.124667e-01
9.310000e-06,-1.809000e-01
9.380000e-06,-2.201667e-01
9.450000e-06,-2.309000e-01
9.520000e-06,-2.168667e-01
9.590000e-06,-1.995667e-01
9.660000e-06,-3.185333e-01
9.730000e-06,-4.355667e-01
9.800000e-06,-4.504000e-01
9.870000e-06,-4.998667e-01
9.940000e-06,-5.548000e-01
1.001000e-05,-5.336667e-01
1.008000e-05,-5.454667e-01
1.015000e-05,-5.553667e-01
1.022000e-05,-5.152333e-01
1.029000e-05,-4.806333e-01
1.036000e-05,-4.152333e-01
1.043000e-05,-2.976667e-01
1.050000e-05,-1.427000e-01
1.057000e-05,3.040000e-02
1.064000e-05,2.106000e-01
1.071000e-05,3.842667e-01
1.078000e-05,5.326000e-01
1.085000e-05,6.579000e-01
1.092000e-05,7.425000e-01
1.099000e-05,7.823333e-01
1.106000e-05,7.776667e-01
1.113000e-05,7.351000e-01
1.120000e-05,6.573333e-01
1.127000e-05,5.471666e-01
1.134000e-05,4.199667e-01
1.141000e-05,2.859000e-01
1.148000e-05,1.529333e-01
1.155000e-05,3.176667e-02
1.162000e-05,-7.016667e-02
1.169000e-05,-1.451667e-01
1.176000e-05,-1.960000e-01
1.183000e-05,-2.204667e-01
1.190000e-05,-2.168667e-01
1.197000e-05,-1.833667e-01
1.204000e-05,-2.438000e-01
1.211000e-05,-3.888667e-01
1.218000e-05,-4.366667e-01
1.225000e-05,-4.427000e-01
1.232000e-05,-5.311667e-01
1.239000e-05,-5.358667e-01
1.246000e-05,-5.279000e-01
1.253000e-05,-5.551000e-01
1.260000e-05,-5.268000e-01
1.267000e-05,-4.954667e-01
1.274000e-05,-4.438000e-01
1.281000e-05,-3.531334e-01
1.288000e-05,-2.075333e-01
1.295000e-05,-4.956667e-02
1.302000e-05,1.320333e-01
1.309000e-05,3.076000e-01
1.316000e-05,4.699667e-01
1.323000e-05,6.095334e-01
1.330000e-05,7.106333e-01
1.337000e-05,7.722000e-01
1.344000e-05,7.892333e-01
1.351000e-05,7.628334e-01
1.358000e-05,6.958000e-01
1.365000e-05,5.977333e-01
1.372000e-05,4.787667e-01
1.379000e-05,3.463333e-01
1.386000e-05,2.111667e-01
1.393000e-05,8.480000e-02
1.400000e-05,-2.070000e-02
1.407000e-05,-1.168667e-01
1.414000e-05,-1.839000e-01
1.421000e-05,-2.171667e-01
1.428000e-05,-2.273333e-01
1.435000e-05,-2.141333e-01
1.442000e-05,-1.888667e-01
1.449000e-05,-3.256667e-01
1.456000e-05,-4.328333e-01
1.463000e-05,-4.435333e-01
1.470000e-05,-4.998667e-01
1.477000e-05,-5.523334e-01
1.484000e-05,-5.317333e-01
1.491000e-05,-5.507000e-01
1.498000e-05,-5.553667e-01
1.505000e-05,-5.078334e-01
1.512000e-05,-4.729334e-01
1.519000e-05,-4.050667e-01
1.526000e-05,-2.789667e-01
1.533000e-05,-1.300667e-01
1.540000e-05,4.523334e-02
1.547000e-05,2.243667e-01
1.554000e-05,3.985333e-01
1.561000e-05,5.477334e-01
1.568000e-05,6.688667e-01
1.575000e-05,7.507667e-01
1.582000e-05,7.837334e-01
1.589000e-05,7.760333e-01
1.596000e-05,7.249333e-01
1.603000e-05,6.463667e-01
1.610000e-05,5.331666e-01
1.617000e-05,4.084333e-01
1.624000e-05,2.760000e-01
1.631000e-05,1.463333e-01
1.638000e-05,2.433333e-02
1.645000e-05,-7.760000e-02
1.652000e-05,-1.526000e-01
1.659000e-05,-2.028667e-01
1.666000e-05,-2.234667e-01
1.673000e-05,-2.179667e-01
1.680000e-05,-1.866667e-01
1.687000e-05,-2.482000e-01
1.694000e-05,-3.872333e-01
1.701000e-05,-4.394333e-01
1.708000e-05,-4.553667e-01
1.715000e-05,-5.419000e-01
1.722000e-05,-5.416334e-01
1.729000e-05,-5.317333e-01
1.736000e-05,-5.531667e-01
1.743000e-05,-5.259666e-01
1.750000e-05,-4.954667e-01
1.757000e-05,-4.463000e-01
1.764000e-05,-3.421667e-01
1.771000e-05,-1.982000e-01
1.778000e-05,-3.663334e-02
1.785000e-05,1.466000e-01
1.792000e-05,3.216000e-01
1.799000e-05,4.845333e-01
1.806000e-05,6.188667e-01
1.813000e-05,7.161334e-01
1.820000e-05,7.732667e-01
1.827000e-05,7.870333e-01
1.834000e-05,7.557000e-01
1.841000e-05,6.886667e-01
1.848000e-05,5.919667e-01
1.855000e-05,4.732667e-01
1.862000e-05,3.403000e-01
1.869000e-05,2.051333e-01
1.876000e-05,7.653333e-02
1.883000e-05,-3.226667e-02
1.890000e-05,-1.196333e-01
1.897000e-05,-1.814333e-01
1.904000e-05,-2.152333e-01
1.911000e-05,-2.237333e-01
1.918000e-05,-2.081000e-01
1.925000e-05,-1.954333e-01
1.932000e-05,-3.355667e-01
1.939000e-05,-4.410667e-01
1.946000e-05,-4.405333e-01
1.953000e-05,-5.059000e-01
1.960000e-05,-5.498667e-01
1.967000e-05,-5.331000e-01
1.974000e-05,-5.460333e-01
1.981000e-05,-5.452000e-01
1.988000e-05,-5.037000e-01
1.995000e-05,-4.798000e-01
2.002000e-05,-3.976667e-01
2.009000e-05,-2.674333e-01
2.016000e-05,-1.124667e-01
2.023000e-05,6.416667e-02
2.030000e-05,2.430333e-01
2.037000e-05,4.081667e-01
2.044000e-05,5.590000e-01
2.051000e-05,6.730000e-01
2.058000e-05,7.518667e-01
2.065000e-05,7.848334e-01
2.072000e-05,7.798667e-01
2.079000e-05,7.274000e-01
2.086000e-05,6.386667e-01
2.093000e-05,5.309667e-01
2.100000e-05,4.029333e-01
2.107000e-05,2.702333e-01
2.114000e-05,1.370000e-01
2.121000e-05,2.076667e-02
2.128000e-05,-7.896667e-02
2.135000e-05,-1.548000e-01
2.142000e-05,-2.031333e-01
2.149000e-05,-2.240333e-01
2.156000e-05,-2.185333e-01
2.163000e-05,-1.795000e-01
2.170000e-05,-2.625000e-01
2.177000e-05,-4.020667e-01
2.184000e-05,-4.487667e-01
2.191000e-05,-4.605667e-01
2.198000e-05,-5.372334e-01
2.205000e-05,-5.355667e-01
2.212000e-05,-5.355667e-01
2.219000e-05,-5.496000e-01
2.226000e-05,-5.235000e-01
2.233000e-05,-4.883333e-01
2.240000e-05,-4.322667e-01
2.247000e-05,-3.276000e-01
2.254000e-05,-1.877667e-01
2.261000e-05,-2.016667e-02
2.268000e-05,1.578667e-01
2.275000e-05,3.317667e-01
2.282000e-05,4.914000e-01
2.289000e-05,6.241000e-01
2.296000e-05,7.249333e-01
2.303000e-05,7.798667e-01
2.310000e-05,7.859333e-01
2.317000e-05,7.543333e-01
2.324000e-05,6.842667e-01
2.331000e-05,5.886667e-01
2.338000e-05,4.650334e-01
2.345000e-05,3.342333e-01
2.352000e-05,2.012667e-01
2.359000e-05,7.433333e-02
2.366000e-05,-3.663334e-02
2.373000e-05,-1.259333e-01
2.380000e-05,-1.866667e-01
2.387000e-05,-2.201667e-01
2.394000e-05,-2.267667e-01
2.401000e-05,-2.072667e-01
2.408000e-05,-1.971000e-01
2.415000e-05,-3.462667e-01
2.422000e-05,-4.355667e-01
2.429000e-05,-4.421667e-01
2.436000e-05,-5.097667e-01
2.443000e-05,-5.460333e-01
2.450000e-05,-5.300667e-01
2.457000e-05,-5.427333e-01
2.464000e-05,-5.366667e-01
2.471000e-05,-4.974000e-01
2.478000e-05,-4.658000e-01
2.485000e-05,-3.858333e-01
2.492000e-05,-2.581000e-01
2.499000e-05,-1.034000e-01
2.506000e-05,7.380000e-02
2.513000e-05,2.526667e-01
2.520000e-05,4.265667e-01
2.527000e-05,5.688667e-01
2.534000e-05,6.853667e-01
2.541000e-05,7.565333e-01
2.548000e-05,7.886667e-01
2.555000e-05,7.776667e-01
2.562000e-05,7.232667e-01
2.569000e-05,6.364667e-01
2.576000e-05,5.227333e-01
2.583000e-05,3.952333e-01
2.590000e-05,2.622667e-01
2.597000e-05,1.295667e-01
2.604000e-05,1.390000e-02
2.611000e-05,-8.856667e-02
2.618000e-05,-1.592000e-01
2.625000e-05,-2.045000e-01
2.632000e-05,-2.185333e-01
2.639000e-05,-2.155000e-01
2.646000e-05,-1.806000e-01
2.653000e-05,-2.778667e-01
2.660000e-05,-4.059000e-01
2.667000e-05,-4.347333e-01
2.674000e-05,-4.663333e-01
2.681000e-05,-5.380334e-01
2.688000e-05,-5.344667e-01
2.695000e-05,-5.325667e-01
2.702000e-05,-5.471000e-01
2.709000e-05,-5.251333e-01
2.716000e-05,-4.872333e-01
2.723000e-05,-4.303667e-01
2.730000e-05,-3.256667e-01
2.737000e-05,-1.784000e-01
2.744000e-05,-4.766667e-03
2.751000e-05,1.710667e-01
2.758000e-05,3.480000e-01
2.765000e-05,5.073333e-01
2.772000e-05,6.337000e-01
2.779000e-05,7.323334e-01
2.786000e-05,7.831666e-01
2.793000e-05,7.900333e-01
2.800000e-05,7.551333e-01
2.807000e-05,6.807000e-01
2.814000e-05,5.798666e-01
2.821000e-05,4.559667e-01
2.828000e-05,3.221667e-01
2.835000e-05,1.870000e-01
2.842000e-05,6.280000e-02
2.849000e-05,-4.626667e-02
2.856000e-05,-1.295000e-01
2.863000e-05,-1.883000e-01
2.870000e-05,-2.185333e-01
2.877000e-05,-2.221000e-01
2.884000e-05,-1.888667e-01
2.891000e-05,-2.111000e-01
2.898000e-05,-3.432667e-01
2.905000e-05,-4.427000e-01
2.912000e-05,-4.410667e-01
2.919000e-05,-5.147000e-01
2.926000e-05,-5.465667e-01
2.933000e-05,-5.364000e-01
2.940000e-05,-5.482000e-01
2.947000e-05,-5.419000e-01
2.954000e-05,-5.004000e-01
2.961000e-05,-4.696333e-01
2.968000e-05,-3.767667e-01
2.975000e-05,-2.460000e-01
2.982000e-05,-8.940000e-02
2.989000e-05,8.616666e-02
2.996000e-05,2.622667e-01
3.003000e-05,4.339667e-01
3.010000e-05,5.776667e-01
3.017000e-05,6.944333e-01
3.024000e-05,7.656000e-01
3.031000e-05,7.911333e-01
3.038000e-05,7.749333e-01
3.045000e-05,7.153000e-01
3.052000e-05,6.254666e-01
3.059000e-05,5.109000e-01
3.066000e-05,3.804000e-01
3.073000e-05,2.488000e-01
3.080000e-05,1.216000e-01
3.087000e-05,3.733333e-03
3.094000e-05,-9.213334e-02
3.101000e-05,-1.638667e-01
3.108000e-05,-2.059000e-01
3.115000e-05,-2.229333e-01
3.122000e-05,-2.114000e-01
3.129000e-05,-1.707333e-01
3.136000e-05,-2.828000e-01
3.143000e-05,-4.103000e-01
3.150000e-05,-4.399667e-01
3.157000e-05,-4.773333e-01
3.164000e-05,-5.449333e-01
3.171000e-05,-5.386000e-01
3.178000e-05,-5.399667e-01
3.185000e-05,-5.529000e-01
3.192000e-05,-5.207334e-01
3.199000e-05,-4.833667e-01
3.206000e-05,-4.234667e-01
3.213000e-05,-3.136000e-01
3.220000e-05,-1.635667e-01
3.227000e-05,4.566667e-03
3.234000e-05,1.864333e-01
3.241000e-05,3.614333e-01
3.248000e-05,5.177667e-01
3.255000e-05,6.460667e-01
3.262000e-05,7.331667e-01
3.269000e-05,7.837334e-01
3.276000e-05,7.848334e-01
3.283000e-05,7.458000e-01
3.290000e-05,6.699667e-01
3.297000e-05,5.683333e-01
3.304000e-05,4.480000e-01
3.311000e-05,3.120000e-01
3.318000e-05,1.815000e-01
3.325000e-05,5.483333e-02
3.332000e-05,-5.313333e-02
3.339000e-05,-1.341667e-01
3.346000e-05,-1.910667e-01
3.353000e-05,-2.177000e-01
3.360000e-05,-2.185333e-01
3.367000e-05,-1.814333e-01
3.374000e-05,-2.196333e-01
3.381000e-05,-3.702000e-01
3.388000e-05,-4.438000e-01
3.395000e-05,-4.452000e-01
3.402000e-05,-5.235000e-01
3.409000e-05,-5.457333e-01
3.416000e-05,-5.289667e-01
3.423000e-05,-5.482000e-01
3.430000e-05,-5.372334e-01
3.437000e-05,-4.952000e-01
3.444000e-05,-4.487667e-01
3.451000e-05,-3.715667e-01
3.458000e-05,-2.339000e-01
3.465000e-05,-7.400000e-02
3.472000e-05,1.056667e-01
3.479000e-05,2.820333e-01
3.486000e-05,4.474334e-01
3.493000e-05,5.856333e-01
3.500000e-05,6.980000e-01
3.507000e-05,7.636667e-01
3.514000e-05,7.914000e-01
3.521000e-05,7.727333e-01
3.528000e-05,7.117333e-01
3.535000e-05,6.199667e-01
3.542000e-05,5.046000e-01
3.549000e-05,3.735333e-01
3.556000e-05,2.375333e-01
3.563000e-05,1.109000e-01
3.570000e-05,-4.000000e-04
3.577000e-05,-9.516667e-02
3.584000e-05,-1.646667e-01
3.591000e-05,-2.075333e-01
3.598000e-05,-2.223667e-01
3.605000e-05,-2.119333e-01
3.612000e-05,-1.762333e-01
3.619000e-05,-2.968333e-01
3.626000e-05,-4.174334e-01
3.633000e-05,-4.421667e-01
3.640000e-05,-4.795333e-01
3.647000e-05,-5.449333e-01
3.654000e-05,-5.372334e-01
3.661000e-05,-5.342000e-01
3.668000e-05,-5.504000e-01
3.675000e-05,-5.067334e-01
3.682000e-05,-4.773333e-01
3.689000e-05,-4.122334e-01
3.696000e-05,-3.031333e-01
3.703000e-05,-1.501333e-01
3.710000e-05,1.773333e-02
3.717000e-05,1.974333e-01
3.724000e-05,3.710667e-01
3.731000e-05,5.232667e-01
3.738000e-05,6.518334e-01
3.745000e-05,7.397667e-01
3.752000e-05,7.853667e-01
3.759000e-05,7.853667e-01
3.766000e-05,7.436000e-01
3.773000e-05,6.658667e-01
3.780000e-05,5.568000e-01
3.787000e-05,4.317667e-01
3.794000e-05,3.023667e-01
3.801000e-05,1.696667e-01
3.808000e-05,4.853334e-02
3.815000e-05,-5.560000e-02
3.822000e-05,-1.388667e-01
3.829000e-05,-1.938000e-01
3.836000e-05,-2.179667e-01
3.843000e-05,-2.234667e-01
3.850000e-05,-2.004000e-01
3.857000e-05,-2.267667e-01
3.864000e-05,-3.647000e-01
3.871000e-05,-4.377667e-01
3.878000e-05,-4.487667e-01
3.885000e-05,-5.226667e-01
3.892000e-05,-5.432667e-01
3.899000e-05,-5.303667e-01
3.906000e-05,-5.476667e-01
3.913000e-05,-5.366667e-01
3.920000e-05,-4.844667e-01
3.927000e-05,-4.515000e-01
3.934000e-05,-3.625000e-01
3.941000e-05,-2.237333e-01
3.948000e-05,-6.466667e-02
3.955000e-05,1.098000e-01
3.962000e-05,2.925000e-01
3.969000e-05,4.581667e-01
3.976000e-05,5.985333e-01
3.983000e-05,7.046000e-01
3.990000e-05,7.694333e-01
3.997000e-05,7.906000e-01
4.004000e-05,7.678000e-01
4.011000e-05,7.057000e-01
4.018000e-05,6.134000e-01
4.025000e-05,4.985333e-01
4.032000e-05,3.677667e-01
4.039000e-05,2.337000e-01
4.046000e-05,1.018333e-01
4.053000e-05,-8.633333e-03
4.060000e-05,-1.059000e-01
4.067000e-05,-1.740333e-01
4.074000e-05,-2.092000e-01
4.081000e-05,-2.204667e-01
4.088000e-05,-2.075333e-01
4.095000e-05,-1.905000e-01
4.102000e-05,-3.048000e-01
4.109000e-05,-4.251333e-01
4.116000e-05,-4.372333e-01
4.123000e-05,-4.858333e-01
4.130000e-05,-5.476667e-01
4.137000e-05,-5.317333e-01
4.144000e-05,-5.328333e-01
4.151000e-05,-5.474000e-01
4.158000e-05,-5.086667e-01
4.165000e-05,-4.743000e-01
4.172000e-05,-4.092000e-01
4.179000e-05,-2.954667e-01
4.186000e-05,-1.438000e-01
4.193000e-05,3.010000e-02
4.200000e-05,2.111667e-01
4.207000e-05,3.831667e-01
4.214000e-05,5.331666e-01
4.221000e-05,6.598000e-01
4.228000e-05,7.441667e-01
4.235000e-05,7.870333e-01
4.242000e-05,7.815334e-01
4.249000e-05,7.411333e-01
4.256000e-05,6.645000e-01
4.263000e-05,5.543000e-01
4.270000e-05,4.298667e-01
4.277000e-05,2.936000e-01
4.284000e-05,1.617000e-01
4.291000e-05,3.586667e-02
4.298000e-05,-6.413333e-02
4.305000e-05,-1.432333e-01
4.312000e-05,-1.976333e-01
4.319000e-05,-2.221000e-01
4.326000e-05,-2.185333e-01
4.333000e-05,-1.962667e-01
4.340000e-05,-1.553333e-01
4.347000e-05,-1.012000e-01
4.354000e-05,-4.050000e-02
4.361000e-05,1.720000e-02
4.368000e-05,6.940000e-02
4.375000e-05,1.023667e-01
4.382000e-05,1.216000e-01
4.389000e-05,1.207667e-01
4.396000e-05,1.040333e-01
4.403000e-05,6.940000e-02
4.410000e-05,1.940000e-02
4.417000e-05,-3.693333e-02
4.424000e-05,-9.763333e-02
4.431000e-05,-1.622000e-01
4.438000e-05,-2.245667e-01
4.445000e-05,-2.748333e-01
4.452000e-05,-3.163333e-01
4.459000e-05,-3.449000e-01
4.466000e-05,-3.526000e-01
4.473000e-05,-3.515000e-01
4.480000e-05,-3.273333e-01
4.487000e-05,-3.017667e-01
4.494000e-05,-2.597333e-01
4.501000e-05,-2.141333e-01
4.508000e-05,-1.657667e-01
4.515000e-05,-1.174333e-01
4.522000e-05,-7.180000e-02
4.529000e-05,-3.033333e-02
