Time(s),CH1V
-7.000000e-06,-2.223667e-01
-6.930000e-06,-2.432667e-01
-6.860000e-06,-2.256667e-01
-6.790000e-06,-1.938000e-01
-6.720000e-06,-1.311667e-01
-6.650000e-06,-6.303333e-02
-6.580000e-06,1.773333e-02
-6.510000e-06,1.018333e-01
-6.440000e-06,1.826000e-01
-6.370000e-06,2.562333e-01
-6.300000e-06,3.106333e-01
-6.230000e-06,3.515667e-01
-6.160000e-06,3.749000e-01
-6.090000e-06,3.697000e-01
-6.020000e-06,3.474333e-01
-5.950000e-06,3.095333e-01
-5.880000e-06,2.567667e-01
-5.810000e-06,1.982667e-01
-5.740000e-06,1.342333e-01
-5.670000e-06,7.323334e-02
-5.600000e-06,1.883333e-02
-5.530000e-06,-3.006667e-02
-5.460000e-06,-6.743333e-02
-5.390000e-06,-8.966666e-02
-5.320000e-06,-1.004000e-01
-5.250000e-06,-9.793334e-02
-5.180000e-06,-8.336667e-02
-5.110000e-06,-6.220000e-02
-5.040000e-06,-3.390000e-02
-4.970000e-06,-8.366667e-03
-4.900000e-06,1.773333e-02
-4.830000e-06,3.863334e-02
-4.760000e-06,5.400000e-02
-4.690000e-06,6.170000e-02
-4.620000e-06,5.510000e-02
-4.550000e-06,4.880000e-02
-4.480000e-06,3.423334e-02
-4.410000e-06,8.400000e-03
-4.340000e-06,-2.126667e-02
-4.270000e-06,-5.396667e-02
-4.200000e-06,-8.610000e-02
-4.130000e-06,-1.157667e-01
-4.060000e-06,-1.405000e-01
-3.990000e-06,-1.583667e-01
-3.920000e-06,-1.674333e-01
-3.850000e-06,-1.734667e-01
-3.780000e-06,-1.701667e-01
-3.710000e-06,-1.600000e-01
-3.640000e-06,-1.449000e-01
-3.570000e-06,-1.256667e-01
-3.500000e-06,-1.042333e-01
-3.430000e-06,-7.703333e-02
-3.360000e-06,-5.040000e-02
-3.290000e-06,-3.116667e-02
-3.220000e-06,-1.466667e-02
-3.150000e-06,4.333333e-04
-3.080000e-06,1.390000e-02
-3.010000e-06,1.746667e-02
-2.940000e-06,1.940000e-02
-2.870000e-06,1.693333e-02
-2.800000e-06,9.500000e-03
-2.730000e-06,4.566667e-03
-2.660000e-06,-4.233333e-03
-2.590000e-06,-1.083333e-02
-2.520000e-06,-1.413333e-02
-2.450000e-06,-1.330000e-02
-2.380000e-06,-1.246667e-02
-2.310000e-06,-9.466667e-03
-2.240000e-06,-4.000000e-04
-2.170000e-06,7.566667e-03
-2.100000e-06,2.380000e-02
-2.030000e-06,3.340000e-02
-1.960000e-06,4.853334e-02
-1.890000e-06,5.950000e-02
-1.820000e-06,7.380000e-02
-1.750000e-06,8.260000e-02
-1.680000e-06,9.083334e-02
-1.610000e-06,9.193333e-02
-1.540000e-06,9.413333e-02
-1.470000e-06,9.000000e-02
-1.400000e-06,8.480000e-02
-1.330000e-06,7.490000e-02
-1.260000e-06,6.830000e-02
-1.190000e-06,5.703333e-02
-1.120000e-06,4.963334e-02
-1.050000e-06,3.916667e-02
-9.800000e-07,3.150000e-02
-9.100000e-07,2.270000e-02
-8.400000e-07,1.500000e-02
-7.700000e-07,1.116667e-02
-7.000000e-07,8.400000e-03
-6.300000e-07,9.500000e-03
-5.600000e-07,7.866667e-03
-4.900000e-07,8.666667e-03
-4.200000e-07,7.300000e-03
-3.500000e-07,5.100000e-03
-2.800000e-07,4.000000e-03
-2.100000e-07,2.633333e-03
-1.400000e-07,-1.466667e-03
-7.000000e-08,-7.800000e-03
1.220257e-20,-9.160000e-02
7.000000e-08,-1.861000e-01
1.400000e-07,-2.157667e-01
2.100000e-07,-2.550667e-01
2.800000e-07,-3.031333e-01
3.500000e-07,-3.075333e-01
4.200000e-07,-2.888667e-01
4.900000e-07,-2.457333e-01
5.600000e-07,-1.800667e-01
6.300000e-07,-1.012000e-01
7.000000e-07,-1.083333e-02
7.700000e-07,7.900000e-02
8.400000e-07,1.617000e-01
9.100000e-07,2.372667e-01
9.800000e-07,2.941333e-01
1.050000e-06,3.328667e-01
1.120000e-06,3.518333e-01
1.190000e-06,3.414000e-01
1.260000e-06,3.144667e-01
1.330000e-06,2.697000e-01
1.400000e-06,2.128000e-01
1.470000e-06,1.496333e-01
1.540000e-06,8.916667e-02
1.610000e-06,2.570000e-02
1.680000e-06,-2.840000e-02
1.750000e-06,-7.430000e-02
1.820000e-06,-1.048000e-01
1.890000e-06,-1.221000e-01
1.960000e-06,-1.262000e-01
2.030000e-06,-1.160333e-01
2.100000e-06,-9.490000e-02
2.170000e-06,-6.056667e-02
2.240000e-06,-2.456667e-02
2.310000e-06,5.100000e-03
2.380000e-06,2.323333e-02
2.450000e-06,-9.296667e-02
2.520000e-06,-1.844667e-01
2.590000e-06,-1.902333e-01
2.660000e-06,-2.234667e-01
2.730000e-06,-2.842000e-01
2.800000e-06,-2.586333e-01
2.870000e-06,-2.405000e-01
2.940000e-06,-1.938000e-01
3.010000e-06,-1.270333e-01
3.080000e-06,-4.983333e-02
3.150000e-06,3.120000e-02
3.220000e-06,1.111667e-01
3.290000e-06,1.892000e-01
3.360000e-06,2.501667e-01
3.430000e-06,2.969000e-01
3.500000e-06,3.199667e-01
3.570000e-06,3.216000e-01
3.640000e-06,3.040333e-01
3.710000e-06,2.729667e-01
3.780000e-06,2.265667e-01
3.850000e-06,1.694000e-01
3.920000e-06,1.111667e-01
3.990000e-06,4.686667e-02
4.060000e-06,-8.633333e-03
4.130000e-06,-6.083333e-02
4.200000e-06,-9.873334e-02
4.270000e-06,-1.207333e-01
4.340000e-06,-1.333667e-01
4.410000e-06,-1.265000e-01
4.480000e-06,-1.086333e-01
4.550000e-06,-8.666667e-02
4.620000e-06,-5.643333e-02
4.690000e-06,-2.540000e-02
4.760000e-06,1.226667e-02
4.830000e-06,-6.633333e-02
4.900000e-06,-1.729333e-01
4.970000e-06,-1.957333e-01
5.040000e-06,-2.130333e-01
5.110000e-06,-2.726667e-01
5.180000e-06,-2.811667e-01
5.250000e-06,-2.699000e-01
5.320000e-06,-2.234667e-01
5.390000e-06,-1.679667e-01
5.460000e-06,-8.940000e-02
5.530000e-06,-4.500000e-03
5.600000e-06,8.260000e-02
5.670000e-06,1.625333e-01
5.740000e-06,2.326000e-01
5.810000e-06,2.870000e-01
5.880000e-06,3.199667e-01
5.950000e-06,3.345333e-01
6.020000e-06,3.287667e-01
6.090000e-06,3.021000e-01
6.160000e-06,2.606333e-01
6.230000e-06,2.070333e-01
6.300000e-06,1.452333e-01
6.370000e-06,7.983334e-02
6.440000e-06,1.883333e-02
6.510000e-06,-2.923333e-02
6.580000e-06,-7.456667e-02
6.650000e-06,-1.028667e-01
6.720000e-06,-1.174333e-01
6.790000e-06,-1.179667e-01
6.860000e-06,-1.086333e-01
6.930000e-06,-8.830000e-02
7.000000e-06,-6.136667e-02
7.070000e-06,-2.786667e-02
7.140000e-06,1.266667e-03
7.210000e-06,1.086667e-02
7.280000e-06,-1.048000e-01
7.350000e-06,-1.877667e-01
7.420000e-06,-2.020333e-01
7.490000e-06,-2.325333e-01
7.560000e-06,-2.844667e-01
7.630000e-06,-2.611000e-01
7.700000e-06,-2.465667e-01
7.770000e-06,-1.885667e-01
7.840000e-06,-1.278667e-01
7.910000e-06,-4.600000e-02
7.980000e-06,3.643334e-02
8.050000e-06,1.158333e-01
8.120000e-06,1.930333e-01
8.190000e-06,2.529333e-01
8.260000e-06,2.936000e-01
8.330000e-06,3.172000e-01
8.400000e-06,3.205000e-01
8.470000e-06,3.015667e-01
8.540000e-06,2.705000e-01
8.610000e-06,2.172000e-01
8.680000e-06,1.606000e-01
8.750000e-06,9.963334e-02
8.820000e-06,3.916667e-02
8.890000e-06,-1.466667e-02
8.960000e-06,-6.193333e-02
9.030000e-06,-9.793334e-02
9.100000e-06,-1.179667e-01
9.170000e-06,-1.284000e-01
9.240000e-06,-1.245667e-01
9.310000e-06,-1.069667e-01
9.380000e-06,-7.896667e-02
9.450000e-06,-4.846667e-02
9.520000e-06,-1.796667e-02
9.590000e-06,2.366667e-03
9.660000e-06,-1.086333e-01
9.730000e-06,-2.006667e-01
9.800000e-06,-2.059000e-01
9.870000e-06,-2.556333e-01
9.940000e-06,-3.020333e-01
1.001000e-05,-2.949000e-01
1.008000e-05,-2.751333e-01
1.015000e-05,-2.248333e-01
1.022000e-05,-1.586333e-01
1.029000e-05,-7.043333e-02
1.036000e-05,2.050000e-02
1.043000e-05,1.136333e-01
1.050000e-05,1.990667e-01
1.057000e-05,2.746333e-01
1.064000e-05,3.282000e-01
1.071000e-05,3.611667e-01
1.078000e-05,3.710667e-01
1.085000e-05,3.598000e-01
1.092000e-05,3.238000e-01
1.099000e-05,2.760000e-01
1.106000e-05,2.133667e-01
1.113000e-05,1.499000e-01
1.120000e-05,8.040000e-02
1.127000e-05,1.583333e-02
1.134000e-05,-3.993334e-02
1.141000e-05,-8.526666e-02
1.148000e-05,-1.163333e-01
1.155000e-05,-1.314333e-01
1.162000e-05,-1.328000e-01
1.169000e-05,-1.166000e-01
1.176000e-05,-9.213334e-02
1.183000e-05,-6.330000e-02
1.190000e-05,-2.896667e-02
1.197000e-05,1.280000e-02
1.204000e-05,1.800000e-03
1.211000e-05,-1.276000e-01
1.218000e-05,-2.015000e-01
1.225000e-05,-2.152333e-01
1.232000e-05,-2.394000e-01
1.239000e-05,-2.973667e-01
1.246000e-05,-2.734667e-01
1.253000e-05,-2.561667e-01
1.260000e-05,-1.976333e-01
1.267000e-05,-1.328000e-01
1.274000e-05,-4.983333e-02
1.281000e-05,3.616667e-02
1.288000e-05,1.172000e-01
1.295000e-05,1.908333e-01
1.302000e-05,2.485333e-01
1.309000e-05,2.908333e-01
1.316000e-05,3.155667e-01
1.323000e-05,3.136333e-01
1.330000e-05,2.969000e-01
1.337000e-05,2.622667e-01
1.344000e-05,2.122667e-01
1.351000e-05,1.559333e-01
1.358000e-05,9.466667e-02
1.365000e-05,3.370000e-02
1.372000e-05,-2.016667e-02
1.379000e-05,-6.193333e-02
1.386000e-05,-9.873334e-02
1.393000e-05,-1.171333e-01
1.400000e-05,-1.229333e-01
1.407000e-05,-1.207333e-01
1.414000e-05,-1.037000e-01
1.421000e-05,-7.760000e-02
1.428000e-05,-4.873333e-02
1.435000e-05,-1.660000e-02
1.442000e-05,1.663333e-02
1.449000e-05,4.550000e-02
1.456000e-05,6.830000e-02
1.463000e-05,7.900000e-02
1.470000e-05,8.040000e-02
1.477000e-05,7.573333e-02
1.484000e-05,6.116667e-02
1.491000e-05,3.836667e-02
1.498000e-05,1.280000e-02
1.505000e-05,-1.686667e-02
1.512000e-05,-4.710000e-02
1.519000e-05,-7.373334e-02
1.526000e-05,-1.004000e-01
1.533000e-05,-1.199000e-01
1.540000e-05,-1.333667e-01
1.547000e-05,-1.399667e-01
1.554000e-05,-1.350000e-01
1.561000e-05,-1.254000e-01
1.568000e-05,-1.119333e-01
1.575000e-05,-9.243333e-02
1.582000e-05,-7.180000e-02
1.589000e-05,-4.846667e-02
1.596000e-05,-2.676667e-02
1.603000e-05,-6.966667e-03
1.610000e-05,1.060000e-02
1.617000e-05,2.296667e-02
1.624000e-05,3.313334e-02
1.631000e-05,3.260000e-02
1.638000e-05,2.983333e-02
1.645000e-05,2.463333e-02
1.652000e-05,1.500000e-02
1.659000e-05,4.566667e-03
1.666000e-05,-3.666667e-03
1.673000e-05,-1.576667e-02
1.680000e-05,-1.466667e-02
1.687000e-05,-6.603333e-02
1.694000e-05,-1.377667e-01
1.701000e-05,-1.789667e-01
1.708000e-05,-1.954333e-01
1.715000e-05,-2.262333e-01
1.722000e-05,-2.355667e-01
1.729000e-05,-2.053333e-01
1.736000e-05,-1.685333e-01
1.743000e-05,-1.059000e-01
1.750000e-05,-3.280000e-02
1.757000e-05,5.016667e-02
1.764000e-05,1.320333e-01
1.771000e-05,2.067667e-01
1.778000e-05,2.732667e-01
1.785000e-05,3.260000e-01
1.792000e-05,3.600667e-01
1.799000e-05,3.705000e-01
1.806000e-05,3.622667e-01
1.813000e-05,3.328667e-01
1.820000e-05,2.897334e-01
1.827000e-05,2.394667e-01
1.834000e-05,1.782000e-01
1.841000e-05,1.161000e-01
1.848000e-05,5.676667e-02
1.855000e-05,1.266667e-03
1.862000e-05,-4.490000e-02
1.869000e-05,-7.840000e-02
1.876000e-05,-9.763333e-02
1.883000e-05,-1.034000e-01
1.890000e-05,-9.873334e-02
1.897000e-05,-8.060000e-02
1.904000e-05,-5.696667e-02
1.911000e-05,-3.033333e-02
1.918000e-05,-4.766667e-03
1.925000e-05,2.846667e-02
1.932000e-05,-8.170000e-02
1.939000e-05,-1.943667e-01
1.946000e-05,-2.245667e-01
1.953000e-05,-2.542333e-01
1.960000e-05,-3.064333e-01
1.967000e-05,-3.053333e-01
1.974000e-05,-3.009333e-01
1.981000e-05,-2.495667e-01
1.988000e-05,-1.910667e-01
1.995000e-05,-1.119333e-01
2.002000e-05,-2.730000e-02
2.009000e-05,5.730000e-02
2.016000e-05,1.408333e-01
2.023000e-05,2.109000e-01
2.030000e-05,2.611667e-01
2.037000e-05,2.908333e-01
2.044000e-05,3.018333e-01
2.051000e-05,2.933000e-01
2.058000e-05,2.672000e-01
2.065000e-05,2.238000e-01
2.072000e-05,1.699667e-01
2.079000e-05,1.109000e-01
2.086000e-05,4.523334e-02
2.093000e-05,-1.136667e-02
2.100000e-05,-6.356667e-02
2.107000e-05,-1.028667e-01
2.114000e-05,-1.267667e-01
2.121000e-05,-1.352667e-01
2.128000e-05,-1.322667e-01
2.135000e-05,-1.177000e-01
2.142000e-05,-9.380000e-02
2.149000e-05,-6.110000e-02
2.156000e-05,-2.730000e-02
2.163000e-05,1.940000e-02
2.170000e-05,-6.796667e-02
2.177000e-05,-1.594667e-01
2.184000e-05,-1.872000e-01
2.191000e-05,-2.149667e-01
2.198000e-05,-2.652333e-01
2.205000e-05,-2.825333e-01
2.212000e-05,-2.553333e-01
2.219000e-05,-2.267667e-01
2.226000e-05,-1.597333e-01
2.233000e-05,-8.060000e-02
2.240000e-05,7.300000e-03
2.247000e-05,1.048333e-01
2.254000e-05,1.853333e-01
2.261000e-05,2.620000e-01
2.268000e-05,3.205000e-01
2.275000e-05,3.622667e-01
2.282000e-05,3.776667e-01
2.289000e-05,3.749000e-01
2.296000e-05,3.496333e-01
2.303000e-05,3.037667e-01
2.310000e-05,2.468667e-01
2.317000e-05,1.790333e-01
2.324000e-05,1.095000e-01
2.331000e-05,4.303334e-02
2.338000e-05,-1.523333e-02
2.345000e-05,-6.466667e-02
2.352000e-05,-9.820000e-02
2.359000e-05,-1.226333e-01
2.366000e-05,-1.289667e-01
2.373000e-05,-1.234667e-01
2.380000e-05,-1.020333e-01
2.387000e-05,-7.786667e-02
2.394000e-05,-4.710000e-02
2.401000e-05,-8.366667e-03
2.408000e-05,1.226667e-02
2.415000e-05,-9.133334e-02
2.422000e-05,-1.949000e-01
2.429000e-05,-2.207333e-01
2.436000e-05,-2.564333e-01
2.443000e-05,-2.954667e-01
2.450000e-05,-2.932667e-01
2.457000e-05,-2.833667e-01
2.464000e-05,-2.256667e-01
2.471000e-05,-1.721000e-01
2.478000e-05,-8.940000e-02
2.485000e-05,-4.233333e-03
2.492000e-05,7.930000e-02
2.499000e-05,1.565000e-01
2.506000e-05,2.249000e-01
2.513000e-05,2.749000e-01
2.520000e-05,3.029333e-01
2.527000e-05,3.166667e-01
2.534000e-05,2.990667e-01
2.541000e-05,2.708000e-01
2.548000e-05,2.216000e-01
2.555000e-05,1.677667e-01
2.562000e-05,1.073000e-01
2.569000e-05,4.686667e-02
2.576000e-05,-6.433333e-03
2.583000e-05,-5.476667e-02
2.590000e-05,-9.323333e-02
2.597000e-05,-1.199000e-01
2.604000e-05,-1.322667e-01
2.611000e-05,-1.248333e-01
2.618000e-05,-1.113667e-01
2.625000e-05,-8.336667e-02
2.632000e-05,-5.150000e-02
2.639000e-05,-1.960000e-02
2.646000e-05,1.226667e-02
2.653000e-05,3.973334e-02
2.660000e-05,6.500000e-02
2.667000e-05,8.203334e-02
2.674000e-05,8.533333e-02
2.681000e-05,8.533333e-02
2.688000e-05,7.380000e-02
2.695000e-05,5.373333e-02
2.702000e-05,2.983333e-02
2.709000e-05,-2.566667e-03
2.716000e-05,-3.060000e-02
2.723000e-05,-5.946667e-02
2.730000e-05,-8.610000e-02
2.737000e-05,-1.039667e-01
2.744000e-05,-1.190667e-01
2.751000e-05,-1.267667e-01
2.758000e-05,-1.278667e-01
2.765000e-05,-1.218333e-01
2.772000e-05,-1.086333e-01
2.779000e-05,-9.296667e-02
2.786000e-05,-7.180000e-02
2.793000e-05,-5.010000e-02
2.800000e-05,-2.566667e-02
2.807000e-05,-7.800000e-03
2.814000e-05,5.100000e-03
2.821000e-05,2.186667e-02
2.828000e-05,2.710000e-02
2.835000e-05,2.846667e-02
2.842000e-05,3.150000e-02
2.849000e-05,2.790000e-02
2.856000e-05,2.050000e-02
2.863000e-05,9.500000e-03
2.870000e-05,-1.466667e-03
2.877000e-05,-1.273333e-02
2.884000e-05,-2.510000e-02
2.891000e-05,-4.736667e-02
2.898000e-05,-1.201667e-01
2.905000e-05,-1.748333e-01
2.912000e-05,-1.883000e-01
2.919000e-05,-2.273333e-01
2.926000e-05,-2.416000e-01
2.933000e-05,-2.245667e-01
2.940000e-05,-1.943667e-01
2.947000e-05,-1.328000e-01
2.954000e-05,-6.523333e-02
2.961000e-05,2.076667e-02
2.968000e-05,1.067667e-01
2.975000e-05,1.853333e-01
2.982000e-05,2.551333e-01
2.989000e-05,3.100667e-01
2.996000e-05,3.458000e-01
3.003000e-05,3.683000e-01
3.010000e-05,3.639333e-01
3.017000e-05,3.433000e-01
3.024000e-05,3.084333e-01
3.031000e-05,2.567667e-01
3.038000e-05,1.924667e-01
3.045000e-05,1.306667e-01
3.052000e-05,7.050000e-02
3.059000e-05,1.473333e-02
3.066000e-05,-3.280000e-02
3.073000e-05,-6.523333e-02
3.080000e-05,-8.940000e-02
3.087000e-05,-1.026000e-01
3.094000e-05,-9.820000e-02
3.101000e-05,-8.610000e-02
3.108000e-05,-6.576667e-02
3.115000e-05,-3.773334e-02
3.122000e-05,-1.356667e-02
3.129000e-05,1.966667e-02
3.136000e-05,-3.226667e-02
3.143000e-05,-1.627667e-01
3.150000e-05,-2.168667e-01
3.157000e-05,-2.413333e-01
3.164000e-05,-2.828000e-01
3.171000e-05,-3.122000e-01
3.178000e-05,-2.982000e-01
3.185000e-05,-2.655000e-01
3.192000e-05,-2.075333e-01
3.199000e-05,-1.325333e-01
3.206000e-05,-5.150000e-02
3.213000e-05,3.340000e-02
3.220000e-05,1.155667e-01
3.227000e-05,1.881000e-01
3.234000e-05,2.436000e-01
3.241000e-05,2.848000e-01
3.248000e-05,3.029333e-01
3.255000e-05,2.993667e-01
3.262000e-05,2.771000e-01
3.269000e-05,2.389000e-01
3.276000e-05,1.853333e-01
3.283000e-05,1.268333e-01
3.290000e-05,6.390000e-02
3.297000e-05,8.400000e-03
3.304000e-05,-4.270000e-02
3.311000e-05,-8.720000e-02
3.318000e-05,-1.168667e-01
3.325000e-05,-1.352667e-01
3.332000e-05,-1.366667e-01
3.339000e-05,-1.259333e-01
3.346000e-05,-1.048000e-01
3.353000e-05,-7.346667e-02
3.360000e-05,-3.610000e-02
3.367000e-05,5.933333e-03
3.374000e-05,-3.226667e-02
3.381000e-05,-1.416000e-01
3.388000e-05,-1.910667e-01
3.395000e-05,-1.987333e-01
3.402000e-05,-2.542333e-01
3.409000e-05,-2.858333e-01
3.416000e-05,-2.564333e-01
3.423000e-05,-2.429667e-01
3.430000e-05,-1.745667e-01
3.437000e-05,-1.097333e-01
3.444000e-05,-2.126667e-02
3.451000e-05,6.803334e-02
3.458000e-05,1.562333e-01
3.465000e-05,2.378000e-01
3.472000e-05,3.084333e-01
3.479000e-05,3.507333e-01
3.486000e-05,3.732667e-01
3.493000e-05,3.773667e-01
3.500000e-05,3.578667e-01
3.507000e-05,3.186000e-01
3.514000e-05,2.661000e-01
3.521000e-05,2.032000e-01
3.528000e-05,1.348000e-01
3.535000e-05,6.693333e-02
3.542000e-05,2.366667e-03
3.549000e-05,-5.040000e-02
3.556000e-05,-9.160000e-02
3.563000e-05,-1.163333e-01
3.570000e-05,-1.289667e-01
3.577000e-05,-1.265000e-01
3.584000e-05,-1.102667e-01
3.591000e-05,-8.500000e-02
3.598000e-05,-5.260000e-02
3.605000e-05,-2.373333e-02
3.612000e-05,1.390000e-02
3.619000e-05,-4.380000e-02
3.626000e-05,-1.718333e-01
3.633000e-05,-2.188000e-01
3.640000e-05,-2.432667e-01
3.647000e-05,-2.748333e-01
3.654000e-05,-3.042333e-01
3.661000e-05,-2.847333e-01
3.668000e-05,-2.498333e-01
3.675000e-05,-1.907667e-01
3.682000e-05,-1.130333e-01
3.689000e-05,-3.253333e-02
3.696000e-05,5.456667e-02
3.703000e-05,1.339667e-01
3.710000e-05,2.062333e-01
3.717000e-05,2.620000e-01
3.724000e-05,2.936000e-01
3.731000e-05,3.122667e-01
3.738000e-05,3.067667e-01
3.745000e-05,2.834333e-01
3.752000e-05,2.468667e-01
3.759000e-05,1.916667e-01
3.766000e-05,1.315000e-01
3.773000e-05,6.886667e-02
3.780000e-05,8.400000e-03
3.787000e-05,-4.380000e-02
3.794000e-05,-8.446667e-02
3.801000e-05,-1.122000e-01
3.808000e-05,-1.251000e-01
3.815000e-05,-1.292333e-01
3.822000e-05,-1.163333e-01
3.829000e-05,-9.406666e-02
3.836000e-05,-6.686667e-02
3.843000e-05,-3.170000e-02
3.850000e-05,1.266667e-03
3.857000e-05,3.476667e-02
3.864000e-05,6.446667e-02
3.871000e-05,7.763334e-02
3.878000e-05,9.083334e-02
3.885000e-05,8.806667e-02
3.892000e-05,7.600000e-02
3.899000e-05,6.033333e-02
3.906000e-05,3.586667e-02
3.913000e-05,1.033333e-02
3.920000e-05,-2.236667e-02
3.927000e-05,-4.900000e-02
3.934000e-05,-8.006667e-02
3.941000e-05,-1.026000e-01
3.948000e-05,-1.207333e-01
3.955000e-05,-1.292333e-01
3.962000e-05,-1.317000e-01
3.969000e-05,-1.251000e-01
3.976000e-05,-1.130333e-01
3.983000e-05,-9.653334e-02
3.990000e-05,-7.730000e-02
3.997000e-05,-5.643333e-02
4.004000e-05,-3.830000e-02
4.011000e-05,-1.550000e-02
4.018000e-05,4.000000e-03
4.025000e-05,1.636667e-02
4.032000e-05,2.653333e-02
4.039000e-05,3.203334e-02
4.046000e-05,3.040000e-02
4.053000e-05,2.983333e-02
4.060000e-05,1.773333e-02
4.067000e-05,1.280000e-02
4.074000e-05,5.100000e-03
4.081000e-05,-6.166667e-03
4.088000e-05,-1.466667e-02
4.095000e-05,-2.400000e-02
4.102000e-05,-9.543333e-02
4.109000e-05,-1.619333e-01
4.116000e-05,-1.861000e-01
4.123000e-05,-2.149667e-01
4.130000e-05,-2.394000e-01
4.137000e-05,-2.325333e-01
4.144000e-05,-2.031333e-01
4.151000e-05,-1.531333e-01
4.158000e-05,-8.500000e-02
4.165000e-05,-6.166667e-03
4.172000e-05,7.710000e-02
4.179000e-05,1.592333e-01
4.186000e-05,2.353333e-01
4.193000e-05,2.993667e-01
4.200000e-05,3.392000e-01
4.207000e-05,3.653000e-01
4.214000e-05,3.683000e-01
4.221000e-05,3.548667e-01
4.228000e-05,3.172000e-01
4.235000e-05,2.700000e-01
4.242000e-05,2.111667e-01
4.249000e-05,1.518333e-01
4.256000e-05,9.246667e-02
4.263000e-05,3.040000e-02
4.270000e-05,-1.960000e-02
4.277000e-05,-5.753333e-02
4.284000e-05,-8.556667e-02
4.291000e-05,-1.001000e-01
4.298000e-05,-1.004000e-01
4.305000e-05,-8.666667e-02
4.312000e-05,-6.853333e-02
4.319000e-05,-4.516667e-02
4.326000e-05,-1.686667e-02
4.333000e-05,9.500000e-03
4.340000e-05,2.983333e-02
4.347000e-05,4.796667e-02
4.354000e-05,5.786667e-02
4.361000e-05,5.950000e-02
4.368000e-05,5.620000e-02
4.375000e-05,3.863334e-02
4.382000e-05,1.336667e-02
4.389000e-05,-1.493333e-02
4.396000e-05,-4.600000e-02
4.403000e-05,-7.786667e-02
4.410000e-05,-1.069667e-01
4.417000e-05,-1.303333e-01
4.424000e-05,-1.493000e-01
4.431000e-05,-1.663333e-01
4.438000e-05,-1.734667e-01
4.445000e-05,-1.712667e-01
4.452000e-05,-1.657667e-01
4.459000e-05,-1.495667e-01
4.466000e-05,-1.339000e-01
4.473000e-05,-1.067000e-01
4.480000e-05,-8.336667e-02
4.487000e-05,-6.166667e-02
4.494000e-05,-3.993334e-02
4.501000e-05,-1.990000e-02
4.508000e-05,-3.666667e-03
4.515000e-05,1.143333e-02
4.522000e-05,1.610000e-02
4.529000e-05,1.830000e-02
4.536000e-05,1.883333e-02
