Time(s),CH2V
-2.500000e-05,5.556000e+00
-2.495000e-05,5.682001e+00
-2.490000e-05,5.796667e+00
-2.485000e-05,6.014667e+00
-2.480000e-05,6.278667e+00
-2.475000e-05,6.536667e+00
-2.470000e-05,6.800001e+00
-2.465000e-05,7.138667e+00
-2.460000e-05,7.494000e+00
-2.455000e-05,7.723334e+00
-2.450000e-05,8.079334e+00
-2.445000e-05,8.400001e+00
-2.440000e-05,8.778667e+00
-2.435000e-05,9.168668e+00
-2.430000e-05,9.524001e+00
-2.425000e-05,9.908668e+00
-2.420000e-05,1.024667e+01
-2.415000e-05,1.065067e+01
-2.410000e-05,1.107800e+01
-2.405000e-05,1.144200e+01
-2.400000e-05,1.170333e+01
-2.395000e-05,1.222533e+01
-2.390000e-05,1.262667e+01
-2.385000e-05,1.301333e+01
-2.380000e-05,1.327467e+01
-2.375000e-05,1.370467e+01
-2.370000e-05,1.406600e+01
-2.365000e-05,1.449600e+01
-2.360000e-05,1.478800e+01
-2.355000e-05,1.516400e+01
-2.350000e-05,1.545933e+01
-2.345000e-05,1.578067e+01
-2.340000e-05,1.623334e+01
-2.335000e-05,1.638267e+01
-2.330000e-05,1.674400e+01
-2.325000e-05,1.702733e+01
-2.320000e-05,1.717400e+01
-2.315000e-05,1.738867e+01
-2.310000e-05,1.752333e+01
-2.305000e-05,1.759534e+01
-2.300000e-05,1.767867e+01
-2.295000e-05,1.784733e+01
-2.290000e-05,1.795934e+01
-2.285000e-05,1.809733e+01
-2.280000e-05,1.813733e+01
-2.275000e-05,1.819134e+01
-2.270000e-05,1.822334e+01
-2.265000e-05,1.824333e+01
-2.260000e-05,1.840067e+01
-2.255000e-05,1.824867e+01
-2.250000e-05,1.838934e+01
-2.245000e-05,1.830933e+01
-2.240000e-05,1.822867e+01
-2.235000e-05,1.825467e+01
-2.230000e-05,1.826333e+01
-2.225000e-05,1.808267e+01
-2.220000e-05,1.806867e+01
-2.215000e-05,1.795934e+01
-2.210000e-05,1.786200e+01
-2.205000e-05,1.765867e+01
-2.200000e-05,1.750667e+01
-2.195000e-05,1.737467e+01
-2.190000e-05,1.715067e+01
-2.185000e-05,1.707333e+01
-2.180000e-05,1.687533e+01
-2.175000e-05,1.662067e+01
-2.170000e-05,1.639400e+01
-2.165000e-05,1.611600e+01
-2.160000e-05,1.588933e+01
-2.155000e-05,1.563133e+01
-2.150000e-05,1.537333e+01
-2.145000e-05,1.506333e+01
-2.140000e-05,1.473067e+01
-2.135000e-05,1.443000e+01
-2.130000e-05,1.419733e+01
-2.125000e-05,1.389067e+01
-2.120000e-05,1.357267e+01
-2.115000e-05,1.326867e+01
-2.110000e-05,1.298200e+01
-2.105000e-05,1.262333e+01
-2.100000e-05,1.244867e+01
-2.095000e-05,1.203600e+01
-2.090000e-05,1.174333e+01
-2.085000e-05,1.140800e+01
-2.080000e-05,1.108400e+01
-2.075000e-05,1.081733e+01
-2.070000e-05,1.049333e+01
-2.065000e-05,1.019800e+01
-2.060000e-05,9.994667e+00
-2.055000e-05,9.578668e+00
-2.050000e-05,9.306001e+00
-2.045000e-05,8.999334e+00
-2.040000e-05,8.813334e+00
-2.035000e-05,8.558001e+00
-2.030000e-05,8.302668e+00
-2.025000e-05,8.082001e+00
-2.020000e-05,7.930001e+00
-2.015000e-05,7.574667e+00
-2.010000e-05,7.218667e+00
-2.005000e-05,6.932001e+00
-2.000000e-05,6.554000e+00
-1.995000e-05,6.040667e+00
-1.990000e-05,5.750667e+00
-1.985000e-05,5.476000e+00
-1.980000e-05,5.418667e+00
-1.975000e-05,5.346667e+00
-1.970000e-05,5.309334e+00
-1.965000e-05,5.306667e+00
-1.960000e-05,5.246000e+00
-1.955000e-05,5.338000e+00
-1.950000e-05,5.292000e+00
-1.945000e-05,5.309334e+00
-1.940000e-05,5.326667e+00
-1.935000e-05,5.283334e+00
-1.930000e-05,5.298000e+00
-1.925000e-05,5.320667e+00
-1.920000e-05,5.349334e+00
-1.915000e-05,5.461334e+00
-1.910000e-05,5.470000e+00
-1.905000e-05,5.478667e+00
-1.900000e-05,5.556000e+00
-1.895000e-05,5.530000e+00
-1.890000e-05,5.728001e+00
-1.885000e-05,5.862667e+00
-1.880000e-05,6.164001e+00
-1.875000e-05,6.341334e+00
-1.870000e-05,6.525334e+00
-1.865000e-05,6.969334e+00
-1.860000e-05,7.460001e+00
-1.855000e-05,7.812667e+00
-1.850000e-05,8.044667e+00
-1.845000e-05,8.340001e+00
-1.840000e-05,8.664001e+00
-1.835000e-05,9.111334e+00
-1.830000e-05,9.518667e+00
-1.825000e-05,1.001467e+01
-1.820000e-05,1.032667e+01
-1.815000e-05,1.062533e+01
-1.810000e-05,1.106667e+01
-1.805000e-05,1.154533e+01
-1.800000e-05,1.184067e+01
-1.795000e-05,1.225400e+01
-1.790000e-05,1.268933e+01
-1.785000e-05,1.308800e+01
-1.780000e-05,1.343467e+01
-1.775000e-05,1.389400e+01
-1.770000e-05,1.427800e+01
-1.765000e-05,1.450733e+01
-1.760000e-05,1.500600e+01
-1.755000e-05,1.527267e+01
-1.750000e-05,1.572867e+01
-1.745000e-05,1.596933e+01
-1.740000e-05,1.635933e+01
-1.735000e-05,1.664067e+01
-1.730000e-05,1.693267e+01
-1.725000e-05,1.714533e+01
-1.720000e-05,1.727733e+01
-1.715000e-05,1.748933e+01
-1.710000e-05,1.747200e+01
-1.705000e-05,1.783867e+01
-1.700000e-05,1.787333e+01
-1.695000e-05,1.795934e+01
-1.690000e-05,1.805133e+01
-1.685000e-05,1.817134e+01
-1.680000e-05,1.821733e+01
-1.675000e-05,1.838067e+01
-1.670000e-05,1.832667e+01
-1.665000e-05,1.838400e+01
-1.660000e-05,1.855000e+01
-1.655000e-05,1.848400e+01
-1.650000e-05,1.845267e+01
-1.645000e-05,1.846667e+01
-1.640000e-05,1.836667e+01
-1.635000e-05,1.838934e+01
-1.630000e-05,1.834933e+01
-1.625000e-05,1.824600e+01
-1.620000e-05,1.822867e+01
-1.615000e-05,1.807667e+01
-1.610000e-05,1.792533e+01
-1.605000e-05,1.788467e+01
-1.600000e-05,1.764400e+01
-1.595000e-05,1.750933e+01
-1.590000e-05,1.734000e+01
-1.585000e-05,1.713067e+01
-1.580000e-05,1.689867e+01
-1.575000e-05,1.673200e+01
-1.570000e-05,1.648600e+01
-1.565000e-05,1.618733e+01
-1.560000e-05,1.595800e+01
-1.555000e-05,1.568267e+01
-1.550000e-05,1.543600e+01
-1.545000e-05,1.508933e+01
-1.540000e-05,1.486867e+01
-1.535000e-05,1.459333e+01
-1.530000e-05,1.418600e+01
-1.525000e-05,1.394533e+01
-1.520000e-05,1.359533e+01
-1.515000e-05,1.332600e+01
-1.510000e-05,1.299933e+01
-1.505000e-05,1.273800e+01
-1.500000e-05,1.239133e+01
-1.495000e-05,1.196667e+01
-1.490000e-05,1.173200e+01
-1.485000e-05,1.141067e+01
-1.480000e-05,1.098067e+01
-1.475000e-05,1.083733e+01
-1.470000e-05,1.043000e+01
-1.465000e-05,1.018067e+01
-1.460000e-05,9.925334e+00
-1.455000e-05,9.584667e+00
-1.450000e-05,9.283334e+00
-1.445000e-05,9.034000e+00
-1.440000e-05,8.790001e+00
-1.435000e-05,8.526668e+00
-1.430000e-05,8.234000e+00
-1.425000e-05,8.038668e+00
-1.420000e-05,7.746667e+00
-1.415000e-05,7.531334e+00
-1.410000e-05,7.213334e+00
-1.405000e-05,6.946667e+00
-1.400000e-05,6.554000e+00
-1.395000e-05,6.074667e+00
-1.390000e-05,5.745334e+00
-1.385000e-05,5.598667e+00
-1.380000e-05,5.533334e+00
-1.375000e-05,5.392667e+00
-1.370000e-05,5.338000e+00
-1.365000e-05,5.295334e+00
-1.360000e-05,5.315334e+00
-1.355000e-05,5.315334e+00
-1.350000e-05,5.389334e+00
-1.345000e-05,5.366667e+00
-1.340000e-05,5.338000e+00
-1.335000e-05,5.324000e+00
-1.330000e-05,5.395334e+00
-1.325000e-05,5.424000e+00
-1.320000e-05,5.418667e+00
-1.315000e-05,5.496000e+00
-1.310000e-05,5.452667e+00
-1.305000e-05,5.524667e+00
-1.300000e-05,5.602000e+00
-1.295000e-05,5.716667e+00
-1.290000e-05,5.825334e+00
-1.285000e-05,5.940001e+00
-1.280000e-05,6.164001e+00
-1.275000e-05,6.513334e+00
-1.270000e-05,6.806001e+00
-1.265000e-05,7.104001e+00
-1.260000e-05,7.448000e+00
-1.255000e-05,7.746667e+00
-1.250000e-05,8.159334e+00
-1.245000e-05,8.469334e+00
-1.240000e-05,8.801334e+00
-1.235000e-05,9.166000e+00
-1.230000e-05,9.587334e+00
-1.225000e-05,1.000600e+01
-1.220000e-05,1.035000e+01
-1.215000e-05,1.069133e+01
-1.210000e-05,1.108400e+01
-1.205000e-05,1.148800e+01
-1.200000e-05,1.192133e+01
-1.195000e-05,1.228800e+01
-1.190000e-05,1.269533e+01
-1.185000e-05,1.308800e+01
-1.180000e-05,1.346933e+01
-1.175000e-05,1.381067e+01
-1.170000e-05,1.427200e+01
-1.165000e-05,1.453600e+01
-1.160000e-05,1.488000e+01
-1.155000e-05,1.533333e+01
-1.150000e-05,1.559133e+01
-1.145000e-05,1.595267e+01
-1.140000e-05,1.637067e+01
-1.135000e-05,1.650600e+01
-1.130000e-05,1.687000e+01
-1.125000e-05,1.718534e+01
-1.120000e-05,1.722000e+01
-1.115000e-05,1.742867e+01
-1.110000e-05,1.758067e+01
-1.105000e-05,1.771000e+01
-1.100000e-05,1.788467e+01
-1.095000e-05,1.793667e+01
-1.090000e-05,1.799933e+01
-1.085000e-05,1.817134e+01
-1.080000e-05,1.813733e+01
-1.075000e-05,1.823467e+01
-1.070000e-05,1.837200e+01
-1.065000e-05,1.830334e+01
-1.060000e-05,1.838934e+01
-1.055000e-05,1.853867e+01
-1.050000e-05,1.845800e+01
-1.045000e-05,1.838667e+01
-1.040000e-05,1.835534e+01
-1.035000e-05,1.834667e+01
-1.030000e-05,1.832667e+01
-1.025000e-05,1.820000e+01
-1.020000e-05,1.816000e+01
-1.015000e-05,1.804267e+01
-1.010000e-05,1.785067e+01
-1.005000e-05,1.777600e+01
-1.000000e-05,1.758667e+01
-9.950000e-06,1.746934e+01
-9.900000e-06,1.730000e+01
-9.850000e-06,1.707067e+01
-9.800000e-06,1.688733e+01
-9.750000e-06,1.665800e+01
-9.700000e-06,1.639400e+01
-9.650000e-06,1.621067e+01
-9.600000e-06,1.591200e+01
-9.550000e-06,1.564867e+01
-9.500000e-06,1.537333e+01
-9.450000e-06,1.506333e+01
-9.400000e-06,1.486867e+01
-9.350000e-06,1.447600e+01
-9.300000e-06,1.430067e+01
-9.250000e-06,1.397133e+01
-9.200000e-06,1.360733e+01
-9.150000e-06,1.325133e+01
-9.100000e-06,1.302200e+01
-9.050000e-06,1.262667e+01
-9.000000e-06,1.235667e+01
-8.950000e-06,1.198733e+01
-8.900000e-06,1.172067e+01
-8.850000e-06,1.141333e+01
-8.800000e-06,1.102667e+01
-8.750000e-06,1.082267e+01
-8.700000e-06,1.047600e+01
-8.650000e-06,1.017200e+01
-8.600000e-06,9.891335e+00
-8.550000e-06,9.592668e+00
-8.500000e-06,9.334667e+00
-8.450000e-06,9.034000e+00
-8.400000e-06,8.778667e+00
-8.350000e-06,8.518001e+00
-8.300000e-06,8.194000e+00
-8.250000e-06,8.070667e+00
-8.200000e-06,7.884001e+00
-8.150000e-06,7.500000e+00
-8.100000e-06,7.218667e+00
-8.050000e-06,6.906667e+00
-8.000000e-06,6.565334e+00
-7.950000e-06,6.120667e+00
-7.900000e-06,5.734000e+00
-7.850000e-06,5.547334e+00
-7.800000e-06,5.464000e+00
-7.750000e-06,5.412667e+00
-7.700000e-06,5.366667e+00
-7.650000e-06,5.338000e+00
-7.600000e-06,5.395334e+00
-7.550000e-06,5.412667e+00
-7.500000e-06,5.338000e+00
-7.450000e-06,5.401334e+00
-7.400000e-06,5.430000e+00
-7.350000e-06,5.358000e+00
-7.300000e-06,5.447334e+00
-7.250000e-06,5.412667e+00
-7.200000e-06,5.418667e+00
-7.150000e-06,5.467334e+00
-7.100000e-06,5.481334e+00
-7.050000e-06,5.604667e+00
-7.000000e-06,5.533334e+00
-6.950000e-06,5.630667e+00
-6.900000e-06,5.791334e+00
-6.850000e-06,6.032001e+00
-6.800000e-06,6.186667e+00
-6.750000e-06,6.436000e+00
-6.700000e-06,6.766001e+00
-6.650000e-06,7.116001e+00
-6.600000e-06,7.414001e+00
-6.550000e-06,7.780667e+00
-6.500000e-06,8.182000e+00
-6.450000e-06,8.446001e+00
-6.400000e-06,8.710001e+00
-6.350000e-06,9.168668e+00
-6.300000e-06,9.690667e+00
-6.250000e-06,1.010600e+01
-6.200000e-06,1.040733e+01
-6.150000e-06,1.070533e+01
-6.100000e-06,1.107267e+01
-6.050000e-06,1.154267e+01
-6.000000e-06,1.190933e+01
-5.950000e-06,1.246000e+01
-5.900000e-06,1.276400e+01
-5.850000e-06,1.306800e+01
-5.800000e-06,1.349267e+01
-5.750000e-06,1.382200e+01
-5.700000e-06,1.427800e+01
-5.650000e-06,1.466200e+01
-5.600000e-06,1.501800e+01
-5.550000e-06,1.541600e+01
-5.500000e-06,1.572867e+01
-5.450000e-06,1.605867e+01
-5.400000e-06,1.633667e+01
-5.350000e-06,1.666600e+01
-5.300000e-06,1.697334e+01
-5.250000e-06,1.716800e+01
-5.200000e-06,1.733467e+01
-5.150000e-06,1.745467e+01
-5.100000e-06,1.760933e+01
-5.050000e-06,1.773267e+01
-5.000000e-06,1.787333e+01
-4.950000e-06,1.793667e+01
-4.900000e-06,1.809733e+01
-4.850000e-06,1.816000e+01
-4.800000e-06,1.821733e+01
-4.750000e-06,1.834933e+01
-4.700000e-06,1.835534e+01
-4.650000e-06,1.844667e+01
-4.600000e-06,1.843534e+01
-4.550000e-06,1.847867e+01
-4.500000e-06,1.848667e+01
-4.450000e-06,1.845534e+01
-4.400000e-06,1.845800e+01
-4.350000e-06,1.833533e+01
-4.300000e-06,1.836067e+01
-4.250000e-06,1.824600e+01
-4.200000e-06,1.822867e+01
-4.150000e-06,1.807667e+01
-4.100000e-06,1.795934e+01
-4.050000e-06,1.775267e+01
-4.000000e-06,1.762133e+01
-3.950000e-06,1.738867e+01
-3.900000e-06,1.732867e+01
-3.850000e-06,1.708467e+01
-3.800000e-06,1.693267e+01
-3.750000e-06,1.667800e+01
-3.700000e-06,1.646267e+01
-3.650000e-06,1.623334e+01
-3.600000e-06,1.596933e+01
-3.550000e-06,1.574600e+01
-3.500000e-06,1.540733e+01
-3.450000e-06,1.515267e+01
-3.400000e-06,1.492600e+01
-3.350000e-06,1.455000e+01
-3.300000e-06,1.422667e+01
-3.250000e-06,1.396267e+01
-3.200000e-06,1.363000e+01
-3.150000e-06,1.322600e+01
-3.100000e-06,1.301067e+01
-3.050000e-06,1.264667e+01
-3.000000e-06,1.229933e+01
-2.950000e-06,1.205333e+01
-2.900000e-06,1.177800e+01
-2.850000e-06,1.142200e+01
-2.800000e-06,1.109533e+01
-2.750000e-06,1.071133e+01
-2.700000e-06,1.050467e+01
-2.650000e-06,1.014600e+01
-2.600000e-06,9.902667e+00
-2.550000e-06,9.564001e+00
-2.500000e-06,9.363334e+00
-2.450000e-06,9.008000e+00
-2.400000e-06,8.732667e+00
-2.350000e-06,8.584001e+00
-2.300000e-06,8.285334e+00
-2.250000e-06,8.027334e+00
-2.200000e-06,7.700667e+00
-2.150000e-06,7.502667e+00
-2.100000e-06,7.224667e+00
-2.050000e-06,6.935334e+00
-2.000000e-06,6.450667e+00
-1.950000e-06,6.089334e+00
-1.900000e-06,5.796667e+00
-1.850000e-06,5.553334e+00
-1.800000e-06,5.452667e+00
-1.750000e-06,5.426667e+00
-1.700000e-06,5.418667e+00
-1.650000e-06,5.318000e+00
-1.600000e-06,5.349334e+00
-1.550000e-06,5.410000e+00
-1.500000e-06,5.366667e+00
-1.450000e-06,5.364000e+00
-1.400000e-06,5.349334e+00
-1.350000e-06,5.372667e+00
-1.300000e-06,5.360667e+00
-1.250000e-06,5.432667e+00
-1.200000e-06,5.441334e+00
-1.150000e-06,5.496000e+00
-1.100000e-06,5.487334e+00
-1.050000e-06,5.567334e+00
-1.000000e-06,5.590667e+00
-9.500000e-07,5.648000e+00
-9.000000e-07,5.722001e+00
-8.500000e-07,5.914667e+00
-8.000000e-07,6.232667e+00
-7.500000e-07,6.568000e+00
-7.000000e-07,6.823334e+00
-6.500000e-07,7.164667e+00
-6.000000e-07,7.414001e+00
-5.500000e-07,7.789334e+00
-5.000000e-07,8.124667e+00
-4.500000e-07,8.506001e+00
-4.000000e-07,8.813334e+00
-3.500000e-07,9.237334e+00
-3.000000e-07,9.644668e+00
-2.500000e-07,1.002333e+01
-2.000000e-07,1.044133e+01
-1.500000e-07,1.080600e+01
-1.000000e-07,1.116400e+01
-5.000000e-08,1.148267e+01
1.889942e-19,1.193267e+01
5.000000e-08,1.235400e+01
1.000000e-07,1.279267e+01
1.500000e-07,1.316267e+01
2.000000e-07,1.349267e+01
2.500000e-07,1.377333e+01
3.000000e-07,1.423800e+01
3.500000e-07,1.469400e+01
4.000000e-07,1.496067e+01
4.500000e-07,1.540733e+01
5.000000e-07,1.564267e+01
5.500000e-07,1.596933e+01
6.000000e-07,1.638267e+01
6.500000e-07,1.658867e+01
7.000000e-07,1.695600e+01
7.500000e-07,1.722800e+01
8.000000e-07,1.731133e+01
8.500000e-07,1.750667e+01
9.000000e-07,1.765000e+01
9.500000e-07,1.777867e+01
1.000000e-06,1.790800e+01
1.050000e-06,1.799400e+01
1.100000e-06,1.815467e+01
1.150000e-06,1.816867e+01
1.200000e-06,1.825200e+01
1.250000e-06,1.829467e+01
1.300000e-06,1.832067e+01
1.350000e-06,1.844400e+01
1.400000e-06,1.843534e+01
1.450000e-06,1.842400e+01
1.500000e-06,1.847533e+01
1.550000e-06,1.846667e+01
1.600000e-06,1.833200e+01
1.650000e-06,1.844134e+01
1.700000e-06,1.837200e+01
1.750000e-06,1.825200e+01
1.800000e-06,1.819467e+01
1.850000e-06,1.798267e+01
1.900000e-06,1.791933e+01
1.950000e-06,1.778133e+01
2.000000e-06,1.762133e+01
2.050000e-06,1.744934e+01
2.100000e-06,1.724267e+01
2.150000e-06,1.712533e+01
2.200000e-06,1.688733e+01
2.250000e-06,1.665467e+01
2.300000e-06,1.641667e+01
2.350000e-06,1.615000e+01
2.400000e-06,1.594667e+01
2.450000e-06,1.567733e+01
2.500000e-06,1.543067e+01
2.550000e-06,1.512933e+01
2.600000e-06,1.478800e+01
2.650000e-06,1.451600e+01
2.700000e-06,1.428400e+01
2.750000e-06,1.391400e+01
2.800000e-06,1.365267e+01
2.850000e-06,1.322000e+01
2.900000e-06,1.294200e+01
2.950000e-06,1.262333e+01
3.000000e-06,1.234533e+01
3.050000e-06,1.202733e+01
3.100000e-06,1.168000e+01
3.150000e-06,1.139333e+01
3.200000e-06,1.103800e+01
3.250000e-06,1.072533e+01
3.300000e-06,1.053333e+01
3.350000e-06,1.016333e+01
3.400000e-06,9.880001e+00
3.450000e-06,9.601334e+00
3.500000e-06,9.300668e+00
3.550000e-06,9.059334e+00
3.600000e-06,8.813334e+00
3.650000e-06,8.534667e+00
3.700000e-06,8.308667e+00
3.750000e-06,8.004667e+00
3.800000e-06,7.838001e+00
3.850000e-06,7.485334e+00
3.900000e-06,7.196001e+00
3.950000e-06,6.852001e+00
4.000000e-06,6.462000e+00
4.050000e-06,6.006001e+00
4.100000e-06,5.808001e+00
4.150000e-06,5.642000e+00
4.200000e-06,5.487334e+00
4.250000e-06,5.378000e+00
4.300000e-06,5.372667e+00
4.350000e-06,5.447334e+00
4.400000e-06,5.406667e+00
4.450000e-06,5.372667e+00
4.500000e-06,5.412667e+00
4.550000e-06,5.315334e+00
4.600000e-06,5.406667e+00
4.650000e-06,5.386667e+00
4.700000e-06,5.424000e+00
4.750000e-06,5.346667e+00
4.800000e-06,5.464000e+00
4.850000e-06,5.470000e+00
4.900000e-06,5.487334e+00
4.950000e-06,5.478667e+00
5.000000e-06,5.533334e+00
5.050000e-06,5.607334e+00
5.100000e-06,5.734000e+00
5.150000e-06,5.983334e+00
5.200000e-06,6.244000e+00
5.250000e-06,6.453334e+00
5.300000e-06,6.823334e+00
5.350000e-06,7.116001e+00
5.400000e-06,7.448000e+00
5.450000e-06,7.809334e+00
5.500000e-06,8.159334e+00
5.550000e-06,8.489334e+00
5.600000e-06,8.893334e+00
5.650000e-06,9.257334e+00
5.700000e-06,9.638667e+00
5.750000e-06,1.000600e+01
5.800000e-06,1.035000e+01
5.850000e-06,1.082600e+01
5.900000e-06,1.102667e+01
5.950000e-06,1.154533e+01
6.000000e-06,1.202467e+01
6.050000e-06,1.251733e+01
6.100000e-06,1.286133e+01
6.150000e-06,1.315133e+01
6.200000e-06,1.355000e+01
6.250000e-06,1.387067e+01
6.300000e-06,1.431800e+01
6.350000e-06,1.473933e+01
6.400000e-06,1.507533e+01
6.450000e-06,1.545333e+01
6.500000e-06,1.575200e+01
6.550000e-06,1.597533e+01
6.600000e-06,1.638267e+01
6.650000e-06,1.666067e+01
6.700000e-06,1.697334e+01
6.750000e-06,1.718267e+01
6.800000e-06,1.732267e+01
6.850000e-06,1.752067e+01
6.900000e-06,1.759800e+01
6.950000e-06,1.775600e+01
7.000000e-06,1.797667e+01
7.050000e-06,1.798533e+01
7.100000e-06,1.813733e+01
7.150000e-06,1.820333e+01
7.200000e-06,1.824067e+01
7.250000e-06,1.829200e+01
7.300000e-06,1.840667e+01
7.350000e-06,1.834667e+01
7.400000e-06,1.849267e+01
7.450000e-06,1.846133e+01
7.500000e-06,1.845800e+01
7.550000e-06,1.843267e+01
7.600000e-06,1.845800e+01
7.650000e-06,1.849000e+01
7.700000e-06,1.840667e+01
7.750000e-06,1.826600e+01
7.800000e-06,1.817134e+01
7.850000e-06,1.806533e+01
7.900000e-06,1.797067e+01
7.950000e-06,1.772733e+01
8.000000e-06,1.757533e+01
8.050000e-06,1.748334e+01
8.100000e-06,1.730000e+01
8.150000e-06,1.707067e+01
8.200000e-06,1.676067e+01
8.250000e-06,1.663733e+01
8.300000e-06,1.644534e+01
8.350000e-06,1.615000e+01
8.400000e-06,1.596933e+01
8.450000e-06,1.567733e+01
8.500000e-06,1.531000e+01
8.550000e-06,1.509200e+01
8.600000e-06,1.486867e+01
8.650000e-06,1.451000e+01
8.700000e-06,1.421467e+01
8.750000e-06,1.391400e+01
8.800000e-06,1.363000e+01
8.850000e-06,1.328000e+01
8.900000e-06,1.299933e+01
8.950000e-06,1.251200e+01
9.000000e-06,1.234533e+01
9.050000e-06,1.190933e+01
9.100000e-06,1.173200e+01
9.150000e-06,1.135933e+01
9.200000e-06,1.108400e+01
9.250000e-06,1.075400e+01
9.300000e-06,1.046467e+01
9.350000e-06,1.012600e+01
9.400000e-06,9.868001e+00
9.450000e-06,9.590001e+00
9.500000e-06,9.260668e+00
9.550000e-06,8.985334e+00
9.600000e-06,8.801334e+00
9.650000e-06,8.552001e+00
9.700000e-06,8.251334e+00
9.750000e-06,7.958667e+00
9.800000e-06,7.804000e+00
9.850000e-06,7.468667e+00
9.900000e-06,7.264667e+00
9.950000e-06,6.857334e+00
1.000000e-05,6.416000e+00
1.005000e-05,5.997334e+00
1.010000e-05,5.745334e+00
1.015000e-05,5.570001e+00
1.020000e-05,5.452667e+00
1.025000e-05,5.401334e+00
1.030000e-05,5.315334e+00
1.035000e-05,5.384000e+00
1.040000e-05,5.315334e+00
1.045000e-05,5.366667e+00
1.050000e-05,5.378000e+00
1.055000e-05,5.344000e+00
1.060000e-05,5.338000e+00
1.065000e-05,5.395334e+00
1.070000e-05,5.338000e+00
1.075000e-05,5.372667e+00
1.080000e-05,5.430000e+00
1.085000e-05,5.392667e+00
1.090000e-05,5.510000e+00
1.095000e-05,5.490000e+00
1.100000e-05,5.567334e+00
1.105000e-05,5.622000e+00
1.110000e-05,5.750667e+00
1.115000e-05,5.988667e+00
1.120000e-05,6.210001e+00
1.125000e-05,6.562667e+00
1.130000e-05,6.828667e+00
1.135000e-05,7.164667e+00
1.140000e-05,7.368001e+00
1.145000e-05,7.815334e+00
1.150000e-05,8.142000e+00
1.155000e-05,8.586667e+00
1.160000e-05,8.870667e+00
1.165000e-05,9.289334e+00
1.170000e-05,9.616001e+00
1.175000e-05,1.005467e+01
1.180000e-05,1.040733e+01
1.185000e-05,1.079733e+01
1.190000e-05,1.123267e+01
1.195000e-05,1.163133e+01
1.200000e-05,1.200133e+01
1.205000e-05,1.236000e+01
1.210000e-05,1.276400e+01
1.215000e-05,1.317667e+01
1.220000e-05,1.353800e+01
1.225000e-05,1.387933e+01
1.230000e-05,1.435800e+01
1.235000e-05,1.476267e+01
1.240000e-05,1.506333e+01
