Time(s),CH1V
-1.600000e-05,-6.545333e-01
-1.598000e-05,-8.014667e-01
-1.596000e-05,-9.620000e-01
-1.594000e-05,-1.136000e+00
-1.592000e-05,-1.294267e+00
-1.590000e-05,-1.434400e+00
-1.588000e-05,-1.570000e+00
-1.586000e-05,-1.716933e+00
-1.584000e-05,-1.843467e+00
-1.582000e-05,-1.956533e+00
-1.580000e-05,-2.040133e+00
-1.578000e-05,-2.137333e+00
-1.576000e-05,-2.230000e+00
-1.574000e-05,-2.302400e+00
-1.572000e-05,-2.367867e+00
-1.570000e-05,-2.415333e+00
-1.568000e-05,-2.449333e+00
-1.566000e-05,-2.458400e+00
-1.564000e-05,-2.460533e+00
-1.562000e-05,-2.465067e+00
-1.560000e-05,-2.460533e+00
-1.558000e-05,-2.428933e+00
-1.556000e-05,-2.392800e+00
-1.554000e-05,-2.361200e+00
-1.552000e-05,-2.295600e+00
-1.550000e-05,-2.205200e+00
-1.548000e-05,-2.114800e+00
-1.546000e-05,-2.044667e+00
-1.544000e-05,-1.961067e+00
-1.542000e-05,-1.861600e+00
-1.540000e-05,-1.762133e+00
-1.538000e-05,-1.667200e+00
-1.536000e-05,-1.563200e+00
-1.534000e-05,-1.441200e+00
-1.532000e-05,-1.323600e+00
-1.530000e-05,-1.215067e+00
-1.528000e-05,-1.108933e+00
-1.526000e-05,-1.013867e+00
-1.524000e-05,-8.760000e-01
-1.522000e-05,-8.037333e-01
-1.520000e-05,-6.793333e-01
-1.518000e-05,-5.709333e-01
-1.516000e-05,-4.669333e-01
-1.514000e-05,-3.765333e-01
-1.512000e-05,-2.928000e-01
-1.510000e-05,-2.046667e-01
-1.508000e-05,-1.210667e-01
-1.506000e-05,-6.680000e-02
-1.504000e-05,7.733333e-03
-1.502000e-05,6.653333e-02
-1.500000e-05,1.298667e-01
-1.498000e-05,1.569333e-01
-1.496000e-05,1.750667e-01
-1.494000e-05,2.180000e-01
-1.492000e-05,2.338667e-01
-1.490000e-05,2.496000e-01
-1.488000e-05,2.677333e-01
-1.486000e-05,2.632000e-01
-1.484000e-05,2.925333e-01
-1.482000e-05,3.016000e-01
-1.480000e-05,3.220000e-01
-1.478000e-05,3.672000e-01
-1.476000e-05,4.124000e-01
-1.474000e-05,4.621333e-01
-1.472000e-05,5.118667e-01
-1.470000e-05,5.480000e-01
-1.468000e-05,6.204000e-01
-1.466000e-05,6.813334e-01
-1.464000e-05,7.333333e-01
-1.462000e-05,8.034667e-01
-1.460000e-05,8.486667e-01
-1.458000e-05,8.916000e-01
-1.456000e-05,9.368000e-01
-1.454000e-05,9.956000e-01
-1.452000e-05,1.061067e+00
-1.450000e-05,1.099600e+00
-1.448000e-05,1.158267e+00
-1.446000e-05,1.194533e+00
-1.444000e-05,1.255467e+00
-1.442000e-05,1.287200e+00
-1.440000e-05,1.332400e+00
-1.438000e-05,1.377600e+00
-1.436000e-05,1.436400e+00
-1.434000e-05,1.474800e+00
-1.432000e-05,1.495067e+00
-1.430000e-05,1.535867e+00
-1.428000e-05,1.567467e+00
-1.426000e-05,1.601333e+00
-1.424000e-05,1.610400e+00
-1.422000e-05,1.651067e+00
-1.420000e-05,1.669200e+00
-1.418000e-05,1.680533e+00
-1.416000e-05,1.687200e+00
-1.414000e-05,1.703067e+00
-1.412000e-05,1.712133e+00
-1.410000e-05,1.718933e+00
-1.408000e-05,1.714400e+00
-1.406000e-05,1.728000e+00
-1.404000e-05,1.746000e+00
-1.402000e-05,1.730267e+00
-1.400000e-05,1.709867e+00
-1.398000e-05,1.687200e+00
-1.396000e-05,1.653333e+00
-1.394000e-05,1.605867e+00
-1.392000e-05,1.535867e+00
-1.390000e-05,1.465733e+00
-1.388000e-05,1.418267e+00
-1.386000e-05,1.305200e+00
-1.384000e-05,1.212533e+00
-1.382000e-05,1.097333e+00
-1.380000e-05,9.774667e-01
-1.378000e-05,8.418667e-01
-1.376000e-05,7.153333e-01
-1.374000e-05,5.729333e-01
-1.372000e-05,4.553334e-01
-1.370000e-05,2.813333e-01
-1.368000e-05,1.185333e-01
-1.366000e-05,-4.426667e-02
-1.364000e-05,-2.024000e-01
-1.362000e-05,-3.788000e-01
-1.360000e-05,-5.460000e-01
-1.358000e-05,-7.065333e-01
-1.356000e-05,-8.534667e-01
-1.354000e-05,-1.025200e+00
-1.352000e-05,-1.199333e+00
-1.350000e-05,-1.350800e+00
-1.348000e-05,-1.481867e+00
-1.346000e-05,-1.640133e+00
-1.344000e-05,-1.757600e+00
-1.342000e-05,-1.879733e+00
-1.340000e-05,-1.972400e+00
-1.338000e-05,-2.085333e+00
-1.336000e-05,-2.180267e+00
-1.334000e-05,-2.252667e+00
-1.332000e-05,-2.313733e+00
-1.330000e-05,-2.390533e+00
-1.328000e-05,-2.433467e+00
-1.326000e-05,-2.442533e+00
-1.324000e-05,-2.451600e+00
-1.322000e-05,-2.469600e+00
-1.320000e-05,-2.462800e+00
-1.318000e-05,-2.449333e+00
-1.316000e-05,-2.408667e+00
-1.314000e-05,-2.386000e+00
-1.312000e-05,-2.324933e+00
-1.310000e-05,-2.261733e+00
-1.308000e-05,-2.178000e+00
-1.306000e-05,-2.092133e+00
-1.304000e-05,-2.010800e+00
-1.302000e-05,-1.920400e+00
-1.300000e-05,-1.823200e+00
-1.298000e-05,-1.728267e+00
-1.296000e-05,-1.624267e+00
-1.294000e-05,-1.504400e+00
-1.292000e-05,-1.382400e+00
-1.290000e-05,-1.273867e+00
-1.288000e-05,-1.188000e+00
-1.286000e-05,-1.054667e+00
-1.284000e-05,-9.664000e-01
-1.282000e-05,-8.602667e-01
-1.280000e-05,-7.517334e-01
-1.278000e-05,-6.454667e-01
-1.276000e-05,-5.189334e-01
-1.274000e-05,-4.330667e-01
-1.272000e-05,-3.493333e-01
-1.270000e-05,-2.657333e-01
-1.268000e-05,-1.776000e-01
-1.266000e-05,-1.188000e-01
-1.264000e-05,-3.293333e-02
-1.262000e-05,2.133333e-02
-1.260000e-05,1.004000e-01
-1.258000e-05,1.389333e-01
-1.256000e-05,1.569333e-01
-1.254000e-05,1.976000e-01
-1.252000e-05,2.384000e-01
-1.250000e-05,2.316000e-01
-1.248000e-05,2.586667e-01
-1.246000e-05,2.541333e-01
-1.244000e-05,2.858667e-01
-1.242000e-05,2.632000e-01
-1.240000e-05,2.925333e-01
-1.238000e-05,3.310667e-01
-1.236000e-05,3.830667e-01
-1.234000e-05,4.214667e-01
-1.232000e-05,4.712000e-01
-1.230000e-05,5.344000e-01
-1.228000e-05,5.954667e-01
-1.226000e-05,6.588000e-01
-1.224000e-05,6.858667e-01
-1.222000e-05,7.605333e-01
-1.220000e-05,8.260000e-01
-1.218000e-05,8.600000e-01
-1.216000e-05,9.322667e-01
-1.214000e-05,9.820000e-01
-1.212000e-05,1.027200e+00
-1.210000e-05,1.074667e+00
-1.208000e-05,1.115333e+00
-1.206000e-05,1.167333e+00
-1.204000e-05,1.223867e+00
-1.202000e-05,1.271333e+00
-1.200000e-05,1.300800e+00
-1.198000e-05,1.357200e+00
-1.196000e-05,1.425067e+00
-1.194000e-05,1.440933e+00
-1.192000e-05,1.486133e+00
-1.190000e-05,1.513200e+00
-1.188000e-05,1.544800e+00
-1.186000e-05,1.576533e+00
-1.184000e-05,1.601333e+00
-1.182000e-05,1.624000e+00
-1.180000e-05,1.660133e+00
-1.178000e-05,1.678267e+00
-1.176000e-05,1.676000e+00
-1.174000e-05,1.700800e+00
-1.172000e-05,1.716667e+00
-1.170000e-05,1.707600e+00
-1.168000e-05,1.723467e+00
-1.166000e-05,1.734800e+00
-1.164000e-05,1.741467e+00
-1.162000e-05,1.732533e+00
-1.160000e-05,1.709867e+00
-1.158000e-05,1.687200e+00
-1.156000e-05,1.669200e+00
-1.154000e-05,1.617200e+00
-1.152000e-05,1.581067e+00
-1.150000e-05,1.515467e+00
-1.148000e-05,1.458933e+00
-1.146000e-05,1.357200e+00
-1.144000e-05,1.260000e+00
-1.142000e-05,1.156133e+00
-1.140000e-05,1.063333e+00
-1.138000e-05,9.277334e-01
-1.136000e-05,7.966667e-01
-1.134000e-05,6.610667e-01
-1.132000e-05,5.389333e-01
-1.130000e-05,3.808000e-01
-1.128000e-05,2.089333e-01
-1.126000e-05,5.520000e-02
-1.124000e-05,-1.097333e-01
-1.122000e-05,-2.816000e-01
-1.120000e-05,-4.397333e-01
-1.118000e-05,-6.093333e-01
-1.116000e-05,-7.585334e-01
-1.114000e-05,-9.257333e-01
-1.112000e-05,-1.095333e+00
-1.110000e-05,-1.244533e+00
-1.108000e-05,-1.400400e+00
-1.106000e-05,-1.554133e+00
-1.104000e-05,-1.683067e+00
-1.102000e-05,-1.814133e+00
-1.100000e-05,-1.897733e+00
-1.098000e-05,-2.031067e+00
-1.096000e-05,-2.130533e+00
-1.094000e-05,-2.214267e+00
-1.092000e-05,-2.275200e+00
-1.090000e-05,-2.356667e+00
-1.088000e-05,-2.395067e+00
-1.086000e-05,-2.431200e+00
-1.084000e-05,-2.433467e+00
-1.082000e-05,-2.456133e+00
-1.080000e-05,-2.471867e+00
-1.078000e-05,-2.471867e+00
-1.076000e-05,-2.431200e+00
-1.074000e-05,-2.408667e+00
-1.072000e-05,-2.365600e+00
-1.070000e-05,-2.293333e+00
-1.068000e-05,-2.216533e+00
-1.066000e-05,-2.153200e+00
-1.064000e-05,-2.078533e+00
-1.062000e-05,-1.988133e+00
-1.060000e-05,-1.884133e+00
-1.058000e-05,-1.798267e+00
-1.056000e-05,-1.685333e+00
-1.054000e-05,-1.576800e+00
-1.052000e-05,-1.450133e+00
-1.050000e-05,-1.362000e+00
-1.048000e-05,-1.242267e+00
-1.046000e-05,-1.136000e+00
-1.044000e-05,-1.020667e+00
-1.042000e-05,-9.189333e-01
-1.040000e-05,-8.308000e-01
-1.038000e-05,-6.906667e-01
-1.036000e-05,-5.889333e-01
-1.034000e-05,-5.030667e-01
-1.032000e-05,-4.058667e-01
-1.030000e-05,-3.064000e-01
-1.028000e-05,-2.137333e-01
-1.026000e-05,-1.526667e-01
-1.024000e-05,-8.266667e-02
-1.022000e-05,-3.466667e-03
-1.020000e-05,6.200000e-02
-1.018000e-05,9.146667e-02
-1.016000e-05,1.478667e-01
-1.014000e-05,1.841333e-01
-1.012000e-05,2.180000e-01
-1.010000e-05,2.384000e-01
-1.008000e-05,2.496000e-01
-1.006000e-05,2.541333e-01
-1.004000e-05,2.790667e-01
-1.002000e-05,2.813333e-01
-1.000000e-05,2.925333e-01
-9.980000e-06,3.129333e-01
-9.960000e-06,3.717333e-01
-9.940000e-06,4.056000e-01
-9.920000e-06,4.349333e-01
-9.900000e-06,5.096000e-01
-9.880000e-06,5.638667e-01
-9.860000e-06,6.158667e-01
-9.840000e-06,6.497334e-01
-9.820000e-06,7.242666e-01
-9.800000e-06,7.898667e-01
-9.780000e-06,8.396000e-01
-9.760000e-06,8.916000e-01
-9.740000e-06,9.436000e-01
-9.720000e-06,1.004667e+00
-9.700000e-06,1.036267e+00
-9.680000e-06,1.081467e+00
-9.660000e-06,1.144800e+00
-9.640000e-06,1.208000e+00
-9.620000e-06,1.237467e+00
-9.600000e-06,1.278133e+00
-9.580000e-06,1.343733e+00
-9.560000e-06,1.377600e+00
-9.540000e-06,1.425067e+00
-9.520000e-06,1.468000e+00
-9.500000e-06,1.495067e+00
-9.480000e-06,1.544800e+00
-9.460000e-06,1.553867e+00
-9.440000e-06,1.599067e+00
-9.420000e-06,1.617200e+00
-9.400000e-06,1.646533e+00
-9.380000e-06,1.662400e+00
-9.360000e-06,1.689467e+00
-9.340000e-06,1.698533e+00
-9.320000e-06,1.707600e+00
-9.300000e-06,1.712133e+00
-9.280000e-06,1.718933e+00
-9.260000e-06,1.736933e+00
-9.240000e-06,1.741467e+00
-9.220000e-06,1.743733e+00
-9.200000e-06,1.723467e+00
-9.180000e-06,1.709867e+00
-9.160000e-06,1.700800e+00
-9.140000e-06,1.657867e+00
-9.120000e-06,1.594533e+00
-9.100000e-06,1.569733e+00
-9.080000e-06,1.499600e+00
-9.060000e-06,1.429600e+00
-9.040000e-06,1.332400e+00
-9.020000e-06,1.228400e+00
-9.000000e-06,1.128933e+00
-8.980000e-06,1.006933e+00
-8.960000e-06,8.825334e-01
-8.940000e-06,7.582667e-01
-8.920000e-06,6.226667e-01
-8.900000e-06,4.644000e-01
-8.880000e-06,3.129333e-01
-8.860000e-06,1.569333e-01
-8.840000e-06,5.466667e-03
-8.820000e-06,-1.708000e-01
-8.800000e-06,-3.358667e-01
-8.780000e-06,-4.962667e-01
-8.760000e-06,-6.409333e-01
-8.740000e-06,-8.353333e-01
-8.720000e-06,-9.936000e-01
-8.700000e-06,-1.151867e+00
-8.680000e-06,-1.301067e+00
-8.660000e-06,-1.466000e+00
-8.640000e-06,-1.601600e+00
-8.620000e-06,-1.728267e+00
-8.600000e-06,-1.830000e+00
-8.580000e-06,-1.954267e+00
-8.560000e-06,-2.065067e+00
-8.540000e-06,-2.153200e+00
-8.520000e-06,-2.239067e+00
-8.500000e-06,-2.318133e+00
-8.480000e-06,-2.370133e+00
-8.460000e-06,-2.406400e+00
-8.440000e-06,-2.431200e+00
-8.420000e-06,-2.467333e+00
-8.400000e-06,-2.490000e+00
-8.380000e-06,-2.465067e+00
-8.360000e-06,-2.447067e+00
-8.340000e-06,-2.435733e+00
-8.320000e-06,-2.390533e+00
-8.300000e-06,-2.320400e+00
-8.280000e-06,-2.259467e+00
-8.260000e-06,-2.202933e+00
-8.240000e-06,-2.132800e+00
-8.220000e-06,-2.035600e+00
-8.200000e-06,-1.938400e+00
-8.180000e-06,-1.852533e+00
-8.160000e-06,-1.746267e+00
-8.140000e-06,-1.628800e+00
-8.120000e-06,-1.522533e+00
-8.100000e-06,-1.418533e+00
-8.080000e-06,-1.323600e+00
-8.060000e-06,-1.199333e+00
-8.040000e-06,-1.079467e+00
-8.020000e-06,-9.936000e-01
-8.000000e-06,-8.714667e-01
-7.980000e-06,-7.676000e-01
-7.960000e-06,-6.522667e-01
-7.940000e-06,-5.618667e-01
-7.920000e-06,-4.714667e-01
-7.900000e-06,-3.629333e-01
-7.880000e-06,-2.748000e-01
-7.860000e-06,-2.092000e-01
-7.840000e-06,-1.210667e-01
-7.820000e-06,-4.426667e-02
-7.800000e-06,3.266667e-02
-7.780000e-06,6.880000e-02
-7.760000e-06,1.162667e-01
-7.740000e-06,1.682667e-01
-7.720000e-06,2.044000e-01
-7.700000e-06,2.225333e-01
-7.680000e-06,2.361333e-01
-7.660000e-06,2.473333e-01
-7.640000e-06,2.881333e-01
-7.620000e-06,2.677333e-01
-7.600000e-06,2.677333e-01
-7.580000e-06,2.948000e-01
-7.560000e-06,3.265333e-01
-7.540000e-06,3.672000e-01
-7.520000e-06,4.078667e-01
-7.500000e-06,4.802667e-01
-7.480000e-06,5.344000e-01
-7.460000e-06,5.729333e-01
-7.440000e-06,6.181334e-01
-7.420000e-06,6.949334e-01
-7.400000e-06,7.469333e-01
-7.380000e-06,8.012000e-01
-7.360000e-06,8.486667e-01
-7.340000e-06,9.186667e-01
-7.320000e-06,9.774667e-01
-7.300000e-06,1.006933e+00
-7.280000e-06,1.061067e+00
-7.260000e-06,1.115333e+00
-7.240000e-06,1.176400e+00
-7.220000e-06,1.203600e+00
-7.200000e-06,1.264533e+00
-7.180000e-06,1.312000e+00
-7.160000e-06,1.368533e+00
-7.140000e-06,1.402400e+00
-7.120000e-06,1.422800e+00
-7.100000e-06,1.483867e+00
-7.080000e-06,1.506400e+00
-7.060000e-06,1.531333e+00
-7.040000e-06,1.565200e+00
-7.020000e-06,1.610400e+00
-7.000000e-06,1.635333e+00
-6.980000e-06,1.657867e+00
-6.960000e-06,1.657867e+00
-6.940000e-06,1.678267e+00
-6.920000e-06,1.703067e+00
-6.900000e-06,1.696267e+00
-6.880000e-06,1.714400e+00
-6.860000e-06,1.718933e+00
-6.840000e-06,1.739200e+00
-6.820000e-06,1.748267e+00
-6.800000e-06,1.736933e+00
-6.780000e-06,1.723467e+00
-6.760000e-06,1.709867e+00
-6.740000e-06,1.671467e+00
-6.720000e-06,1.646533e+00
-6.700000e-06,1.601333e+00
-6.680000e-06,1.551600e+00
-6.660000e-06,1.470267e+00
-6.640000e-06,1.377600e+00
-6.620000e-06,1.284933e+00
-6.600000e-06,1.194533e+00
-6.580000e-06,1.067867e+00
-6.560000e-06,9.617333e-01
-6.540000e-06,8.418667e-01
-6.520000e-06,7.062667e-01
-6.500000e-06,5.570667e-01
-6.480000e-06,4.078667e-01
-6.460000e-06,2.541333e-01
-6.440000e-06,1.140000e-01
-6.420000e-06,-8.040000e-02
-6.400000e-06,-2.318667e-01
-6.380000e-06,-3.945333e-01
-6.360000e-06,-5.437334e-01
-6.340000e-06,-7.245333e-01
-6.320000e-06,-8.986667e-01
-6.300000e-06,-1.052400e+00
-6.280000e-06,-1.206133e+00
-6.260000e-06,-1.373333e+00
-6.240000e-06,-1.518000e+00
-6.220000e-06,-1.635600e+00
-6.200000e-06,-1.762133e+00
-6.180000e-06,-1.886400e+00
-6.160000e-06,-2.001733e+00
-6.140000e-06,-2.103467e+00
-6.120000e-06,-2.175733e+00
-6.100000e-06,-2.272933e+00
-6.080000e-06,-2.334000e+00
-6.060000e-06,-2.367867e+00
-6.040000e-06,-2.404133e+00
-6.020000e-06,-2.449333e+00
-6.000000e-06,-2.478667e+00
-5.980000e-06,-2.476400e+00
-5.960000e-06,-2.460533e+00
-5.940000e-06,-2.438000e+00
-5.920000e-06,-2.419867e+00
-5.900000e-06,-2.363467e+00
-5.880000e-06,-2.297867e+00
-5.860000e-06,-2.248133e+00
-5.840000e-06,-2.178000e+00
-5.820000e-06,-2.101200e+00
-5.800000e-06,-2.010800e+00
-5.780000e-06,-1.906800e+00
-5.760000e-06,-1.807333e+00
-5.740000e-06,-1.714667e+00
-5.720000e-06,-1.581333e+00
-5.700000e-06,-1.488667e+00
-5.680000e-06,-1.382400e+00
-5.660000e-06,-1.267067e+00
-5.640000e-06,-1.172133e+00
-5.620000e-06,-1.056933e+00
-5.600000e-06,-9.416000e-01
-5.580000e-06,-8.376000e-01
-5.560000e-06,-7.020000e-01
-5.540000e-06,-6.252000e-01
-5.520000e-06,-5.280000e-01
-5.500000e-06,-4.285333e-01
-5.480000e-06,-3.268000e-01
-5.460000e-06,-2.612000e-01
-5.440000e-06,-1.776000e-01
-5.420000e-06,-9.173334e-02
-5.400000e-06,-1.933333e-02
-5.380000e-06,4.173333e-02
-5.360000e-06,8.240000e-02
-5.340000e-06,1.298667e-01
-5.320000e-06,1.818667e-01
-5.300000e-06,1.976000e-01
-5.280000e-06,2.225333e-01
-5.260000e-06,2.384000e-01
-5.240000e-06,2.654667e-01
-5.220000e-06,2.518667e-01
-5.200000e-06,2.384000e-01
-5.180000e-06,2.384000e-01
-5.160000e-06,2.270667e-01
-5.140000e-06,1.976000e-01
-5.120000e-06,1.614667e-01
-5.100000e-06,1.412000e-01
-5.080000e-06,1.208000e-01
-5.060000e-06,5.066667e-02
-5.040000e-06,-1.200000e-03
-5.020000e-06,-4.880000e-02
-5.000000e-06,-1.120000e-01
-4.980000e-06,-1.821333e-01
-4.960000e-06,-2.430667e-01
-4.940000e-06,-2.838667e-01
-4.920000e-06,-3.222667e-01
-4.900000e-06,-3.856000e-01
-4.880000e-06,-4.533333e-01
-4.860000e-06,-5.098667e-01
-4.840000e-06,-5.596000e-01
-4.820000e-06,-6.274667e-01
-4.800000e-06,-6.681333e-01
-4.780000e-06,-7.065333e-01
-4.760000e-06,-7.404000e-01
-4.740000e-06,-7.946666e-01
-4.720000e-06,-8.240000e-01
-4.700000e-06,-8.512000e-01
-4.680000e-06,-8.625333e-01
-4.660000e-06,-9.009333e-01
-4.640000e-06,-9.189333e-01
-4.620000e-06,-9.100000e-01
-4.600000e-06,-8.986667e-01
-4.580000e-06,-8.941333e-01
-4.560000e-06,-8.986667e-01
-4.540000e-06,-8.714667e-01
-4.520000e-06,-8.466667e-01
-4.500000e-06,-8.330667e-01
-4.480000e-06,-7.901334e-01
-4.460000e-06,-7.540000e-01
-4.440000e-06,-6.974667e-01
-4.420000e-06,-6.568000e-01
-4.400000e-06,-6.002667e-01
-4.380000e-06,-5.482666e-01
-4.360000e-06,-4.940000e-01
-4.340000e-06,-4.308000e-01
-4.320000e-06,-3.674667e-01
-4.300000e-06,-2.950667e-01
-4.280000e-06,-2.182667e-01
-4.260000e-06,-1.549333e-01
-4.240000e-06,-8.946667e-02
-4.220000e-06,-2.160000e-02
-4.200000e-06,5.746667e-02
-4.180000e-06,1.117333e-01
-4.160000e-06,1.682667e-01
-4.140000e-06,2.496000e-01
-4.120000e-06,3.490667e-01
-4.100000e-06,3.852000e-01
-4.080000e-06,4.394667e-01
-4.060000e-06,4.914667e-01
-4.040000e-06,5.548000e-01
-4.020000e-06,5.841333e-01
-4.000000e-06,6.384000e-01
-3.980000e-06,6.904000e-01
-3.960000e-06,7.288000e-01
-3.940000e-06,7.446667e-01
-3.920000e-06,7.717333e-01
-3.900000e-06,8.080000e-01
-3.880000e-06,8.305333e-01
-3.860000e-06,8.282667e-01
-3.840000e-06,8.396000e-01
-3.820000e-06,8.486667e-01
-3.800000e-06,8.532000e-01
-3.780000e-06,8.441333e-01
-3.760000e-06,8.396000e-01
-3.740000e-06,8.260000e-01
-3.720000e-06,8.102667e-01
-3.700000e-06,7.808000e-01
-3.680000e-06,7.560000e-01
-3.660000e-06,7.424000e-01
-3.640000e-06,7.242666e-01
-3.620000e-06,6.813334e-01
-3.600000e-06,6.406667e-01
-3.580000e-06,6.158667e-01
-3.560000e-06,5.977333e-01
-3.540000e-06,5.366667e-01
-3.520000e-06,4.982667e-01
-3.500000e-06,4.757333e-01
-3.480000e-06,4.462667e-01
-3.460000e-06,4.056000e-01
-3.440000e-06,3.626667e-01
-3.420000e-06,3.377333e-01
-3.400000e-06,3.084000e-01
-3.380000e-06,2.654667e-01
-3.360000e-06,2.361333e-01
-3.340000e-06,2.066667e-01
-3.320000e-06,2.089333e-01
-3.300000e-06,1.750667e-01
-3.280000e-06,1.456000e-01
-3.260000e-06,1.366667e-01
-3.240000e-06,1.412000e-01
-3.220000e-06,9.813333e-02
-3.200000e-06,1.026667e-01
-3.180000e-06,1.117333e-01
-3.160000e-06,1.117333e-01
-3.140000e-06,1.117333e-01
-3.120000e-06,1.094667e-01
-3.100000e-06,1.208000e-01
-3.080000e-06,1.412000e-01
-3.060000e-06,1.412000e-01
-3.040000e-06,1.660000e-01
-3.020000e-06,1.930667e-01
-3.000000e-06,2.202667e-01
-2.980000e-06,2.384000e-01
-2.960000e-06,2.609333e-01
-2.940000e-06,2.948000e-01
-2.920000e-06,3.377333e-01
-2.900000e-06,3.490667e-01
-2.880000e-06,3.830667e-01
-2.860000e-06,4.237333e-01
-2.840000e-06,4.530667e-01
-2.820000e-06,4.802667e-01
-2.800000e-06,5.073333e-01
-2.780000e-06,5.525333e-01
-2.760000e-06,5.864000e-01
-2.740000e-06,5.977333e-01
-2.720000e-06,6.249334e-01
-2.700000e-06,6.678666e-01
-2.680000e-06,6.949334e-01
-2.660000e-06,7.288000e-01
-2.640000e-06,7.242666e-01
-2.620000e-06,7.537333e-01
-2.600000e-06,7.762667e-01
-2.580000e-06,7.762667e-01
-2.560000e-06,7.944000e-01
-2.540000e-06,8.192000e-01
-2.520000e-06,8.214667e-01
-2.500000e-06,8.260000e-01
-2.480000e-06,8.214667e-01
-2.460000e-06,8.148000e-01
-2.440000e-06,8.260000e-01
-2.420000e-06,7.966667e-01
-2.400000e-06,7.989333e-01
-2.380000e-06,7.944000e-01
-2.360000e-06,7.853333e-01
-2.340000e-06,7.628000e-01
-2.320000e-06,7.265334e-01
-2.300000e-06,7.130667e-01
-2.280000e-06,6.972000e-01
-2.260000e-06,6.633334e-01
-2.240000e-06,6.270667e-01
-2.220000e-06,6.113333e-01
-2.200000e-06,5.864000e-01
-2.180000e-06,5.434667e-01
-2.160000e-06,5.050667e-01
-2.140000e-06,4.802667e-01
-2.120000e-06,4.530667e-01
-2.100000e-06,4.101333e-01
-2.080000e-06,3.897333e-01
-2.060000e-06,3.604000e-01
-2.040000e-06,3.468000e-01
-2.020000e-06,3.016000e-01
-2.000000e-06,2.586667e-01
-1.980000e-06,2.450667e-01
-1.960000e-06,2.180000e-01
-1.940000e-06,1.818667e-01
-1.920000e-06,1.546667e-01
-1.900000e-06,1.456000e-01
-1.880000e-06,1.366667e-01
-1.860000e-06,1.026667e-01
-1.840000e-06,8.693334e-02
-1.820000e-06,6.426667e-02
-1.800000e-06,5.973333e-02
-1.780000e-06,3.946667e-02
-1.760000e-06,2.586667e-02
-1.740000e-06,2.813333e-02
-1.720000e-06,2.586667e-02
-1.700000e-06,1.680000e-02
-1.680000e-06,5.466667e-03
-1.660000e-06,1.000000e-02
-1.640000e-06,1.453333e-02
-1.620000e-06,9.333334e-04
-1.600000e-06,1.226667e-02
-1.580000e-06,2.813333e-02
-1.560000e-06,3.946667e-02
-1.540000e-06,4.173333e-02
-1.520000e-06,5.520000e-02
-1.500000e-06,6.200000e-02
-1.480000e-06,8.013333e-02
-1.460000e-06,7.333333e-02
-1.440000e-06,8.920000e-02
